id,time,gesture_id,gesture_name,s1,s2,s3,s4,s5,s6,s7,s8,s1_norm,s2_norm,s3_norm,s4_norm,s5_norm,s6_norm,s7_norm,s8_norm,quat_w,quat_x,quat_y,quat_z,Pose_L_Shoulder_x_shldr_norm,Pose_L_Shoulder_y_shldr_norm,Pose_L_Shoulder_z_shldr_norm,Pose_L_Shoulder_vis_shldr_norm,Pose_L_Elbow_x_shldr_norm,Pose_L_Elbow_y_shldr_norm,Pose_L_Elbow_z_shldr_norm,Pose_L_Elbow_vis_shldr_norm,Pose_L_Wrist_x_shldr_norm,Pose_L_Wrist_y_shldr_norm,Pose_L_Wrist_z_shldr_norm,Pose_L_Wrist_vis_shldr_norm,Hand_R_Wrist_x_shldr_norm,Hand_R_Wrist_y_shldr_norm,Hand_R_Wrist_z_shldr_norm,Hand_R_Thumb_CMC_x_shldr_norm,Hand_R_Thumb_CMC_y_shldr_norm,Hand_R_Thumb_CMC_z_shldr_norm,Hand_R_Thumb_MCP_x_shldr_norm,Hand_R_Thumb_MCP_y_shldr_norm,Hand_R_Thumb_MCP_z_shldr_norm,Hand_R_Thumb_IP_x_shldr_norm,Hand_R_Thumb_IP_y_shldr_norm,Hand_R_Thumb_IP_z_shldr_norm,Hand_R_Thumb_Tip_x_shldr_norm,Hand_R_Thumb_Tip_y_shldr_norm,Hand_R_Thumb_Tip_z_shldr_norm,Hand_R_Index_MCP_x_shldr_norm,Hand_R_Index_MCP_y_shldr_norm,Hand_R_Index_MCP_z_shldr_norm,Hand_R_Index_PIP_x_shldr_norm,Hand_R_Index_PIP_y_shldr_norm,Hand_R_Index_PIP_z_shldr_norm,Hand_R_Index_DIP_x_shldr_norm,Hand_R_Index_DIP_y_shldr_norm,Hand_R_Index_DIP_z_shldr_norm,Hand_R_Index_Tip_x_shldr_norm,Hand_R_Index_Tip_y_shldr_norm,Hand_R_Index_Tip_z_shldr_norm,Hand_R_Middle_MCP_x_shldr_norm,Hand_R_Middle_MCP_y_shldr_norm,Hand_R_Middle_MCP_z_shldr_norm,Hand_R_Middle_PIP_x_shldr_norm,Hand_R_Middle_PIP_y_shldr_norm,Hand_R_Middle_PIP_z_shldr_norm,Hand_R_Middle_DIP_x_shldr_norm,Hand_R_Middle_DIP_y_shldr_norm,Hand_R_Middle_DIP_z_shldr_norm,Hand_R_Middle_Tip_x_shldr_norm,Hand_R_Middle_Tip_y_shldr_norm,Hand_R_Middle_Tip_z_shldr_norm,Hand_R_Ring_MCP_x_shldr_norm,Hand_R_Ring_MCP_y_shldr_norm,Hand_R_Ring_MCP_z_shldr_norm,Hand_R_Ring_PIP_x_shldr_norm,Hand_R_Ring_PIP_y_shldr_norm,Hand_R_Ring_PIP_z_shldr_norm,Hand_R_Ring_DIP_x_shldr_norm,Hand_R_Ring_DIP_y_shldr_norm,Hand_R_Ring_DIP_z_shldr_norm,Hand_R_Ring_Tip_x_shldr_norm,Hand_R_Ring_Tip_y_shldr_norm,Hand_R_Ring_Tip_z_shldr_norm,Hand_R_Pinky_MCP_x_shldr_norm,Hand_R_Pinky_MCP_y_shldr_norm,Hand_R_Pinky_MCP_z_shldr_norm,Hand_R_Pinky_PIP_x_shldr_norm,Hand_R_Pinky_PIP_y_shldr_norm,Hand_R_Pinky_PIP_z_shldr_norm,Hand_R_Pinky_DIP_x_shldr_norm,Hand_R_Pinky_DIP_y_shldr_norm,Hand_R_Pinky_DIP_z_shldr_norm,Hand_R_Pinky_Tip_x_shldr_norm,Hand_R_Pinky_Tip_y_shldr_norm,Hand_R_Pinky_Tip_z_shldr_norm
eb5ff13ea7a04f08adb9c4dcce026082,1746300484.912575,5,Hand Close,52,91,55,30,39,36,202,201,-0.2716577367547175,-0.16349331309152146,-0.6499368809820774,-0.686523661888177,-0.2176990775633228,-0.229905229703961,3.9303849690303028,3.601751174781651,0.982177734375,-0.05126953125,0.1807861328125,-0.00103759765625,0.0,0.0,0.0,0.9999984502792358,0.03264433145523071,0.25004515051841736,-0.10113674402236938,0.9979628324508667,-0.002131223678588867,0.1807401478290558,-0.35876820981502533,0.9992282390594482,,,,,,,,,,,,,,,,,,,,,,,,,,,,,,,,,,,,,,,,,,,,,,,,,,,,,,,,,,,,,,,
a09a4333baeb4794bc98a81b81b8f1a4,1746300484.913586,5,Hand Close,55,133,61,32,41,36,192,217,-0.22691143730598892,0.37684767852791096,-0.5651297502958914,-0.6517182417268258,-0.18423304691176245,-0.229905229703961,3.6783634089941835,3.9729309724933697,0.982177734375,-0.05126953125,0.1807861328125,-0.00103759765625,0.0,0.0,0.0,0.9999984502792358,0.03264433145523071,0.25004515051841736,-0.10113674402236938,0.9979628324508667,-0.002131223678588867,0.1807401478290558,-0.35876820981502533,0.9992282390594482,,,,,,,,,,,,,,,,,,,,,,,,,,,,,,,,,,,,,,,,,,,,,,,,,,,,,,,,,,,,,,,
a419c77fa6944ea1b5c2101c5b2fc843,1746300484.920092,5,Hand Close,60,141,60,32,47,39,169,207,-0.152334271558108,0.4797697721697076,-0.5792642720769223,-0.6517182417268258,-0.08383495495708139,-0.18800760689944634,3.098713820911109,3.7409435989235456,0.982177734375,-0.05126953125,0.1807861328125,-0.00103759765625,0.0,0.0,0.0,0.9999984502792358,0.03264433145523071,0.25004515051841736,-0.10113674402236938,0.9979628324508667,-0.002131223678588867,0.1807401478290558,-0.35876820981502533,0.9992282390594482,,,,,,,,,,,,,,,,,,,,,,,,,,,,,,,,,,,,,,,,,,,,,,,,,,,,,,,,,,,,,,,
5b38f761a54d40e6b6ebd0ee701a457f,1746300484.920092,5,Hand Close,65,151,75,34,52,43,249,213,-0.07775710581022709,0.6084223892219535,-0.36724644536145745,-0.6169128215654744,-0.00016987832818051362,-0.1321441098267602,5.114886301200064,3.88013602306544,0.982177734375,-0.05126953125,0.1807861328125,-0.00103759765625,0.0,0.0,0.0,0.9999984502792358,0.03264433145523071,0.25004515051841736,-0.10113674402236938,0.9979628324508667,-0.002131223678588867,0.1807401478290558,-0.35876820981502533,0.9992282390594482,,,,,,,,,,,,,,,,,,,,,,,,,,,,,,,,,,,,,,,,,,,,,,,,,,,,,,,,,,,,,,,
3c5360d55d9840b0b3dd874bf4185d1f,1746300484.922092,5,Hand Close,63,145,71,35,51,41,251,203,-0.10758797210937945,0.531230818990606,-0.42378453248558146,-0.5995101114847988,-0.01690289365396069,-0.16007585836310326,5.165290613207288,3.648148649495616,0.982177734375,-0.05126953125,0.1807861328125,-0.00103759765625,0.0,0.0,0.0,0.9999985098838806,0.031119704246520996,0.25008779764175415,-0.10276421159505844,0.9980541467666626,-0.0033301711082458496,0.1783437728881836,-0.35875631123781204,0.9992709159851074,,,,,,,,,,,,,,,,,,,,,,,,,,,,,,,,,,,,,,,,,,,,,,,,,,,,,,,,,,,,,,,
58ac9240421a45bfaf9d6f8b56cf62ce,1746300484.927025,5,Hand Close,67,145,64,36,53,39,252,265,-0.04792623951107472,0.531230818990606,-0.5227261849527984,-0.5821074014041232,0.016563136997599662,-0.18800760689944634,5.1904927692109,5.086470365628525,0.982177734375,-0.05126953125,0.1807861328125,-0.00103759765625,0.0,0.0,0.0,0.9999985098838806,0.031119704246520996,0.25008779764175415,-0.10276421159505844,0.9980541467666626,-0.0033301711082458496,0.1783437728881836,-0.35875631123781204,0.9992709159851074,,,,,,,,,,,,,,,,,,,,,,,,,,,,,,,,,,,,,,,,,,,,,,,,,,,,,,,,,,,,,,,
dd9b2a399a364392bea2ca7495d8e5c5,1746300484.934568,5,Hand Close,65,107,58,31,51,36,251,258,-0.07775710581022709,0.042350874192071855,-0.6075333156389844,-0.6691209518075014,-0.01690289365396069,-0.229905229703961,5.165290613207288,4.924079204129648,0.982177734375,-0.05126953125,0.1807861328125,-0.00103759765625,0.0,0.0,0.0,0.9999985098838806,0.031119704246520996,0.25008779764175415,-0.10276421159505844,0.9980541467666626,-0.0033301711082458496,0.1783437728881836,-0.35875631123781204,0.9992709159851074,,,,,,,,,,,,,,,,,,,,,,,,,,,,,,,,,,,,,,,,,,,,,,,,,,,,,,,,,,,,,,,
57494e32f93a4cfea19a57ebb771fc7f,1746300484.935568,5,Hand Close,64,96,57,31,43,39,295,247,-0.09267253895980328,-0.09916700456539855,-0.6216678374200153,-0.6691209518075014,-0.1507670162602021,-0.18800760689944634,6.274185477366213,4.668893093202842,0.97882080078125,-0.03375244140625,0.20166015625,-0.0001220703125,0.0,0.0,0.0,0.9999985098838806,0.031119704246520996,0.25008779764175415,-0.10276421159505844,0.9980541467666626,-0.0033301711082458496,0.1783437728881836,-0.35875631123781204,0.9992709159851074,,,,,,,,,,,,,,,,,,,,,,,,,,,,,,,,,,,,,,,,,,,,,,,,,,,,,,,,,,,,,,,
a3dd9829ee444d44ab434c1ceb8ebc26,1746300484.936568,5,Hand Close,62,79,47,32,44,35,225,223,-0.12250340525895564,-0.31787645355421645,-0.7630130552303253,-0.6517182417268258,-0.13403400093442192,-0.24387110397213252,4.510034557113378,4.112123396635265,0.97882080078125,-0.03375244140625,0.20166015625,-0.0001220703125,0.0,0.0,0.0,0.9999985098838806,0.031119704246520996,0.25008779764175415,-0.10276421159505844,0.9980541467666626,-0.0033301711082458496,0.1783437728881836,-0.35875631123781204,0.9992709159851074,,,,,,,,,,,,,,,,,,,,,,,,,,,,,,,,,,,,,,,,,,,,,,,,,,,,,,,,,,,,,,,
aca3276187414f499e1f0dfac6650a7f,1746300484.937567,5,Hand Close,65,74,49,32,44,38,232,252,-0.07775710581022709,-0.3822027620803394,-0.7347440116682633,-0.6517182417268258,-0.13403400093442192,-0.2019734811676179,4.686449649138661,4.784886779987754,0.97882080078125,-0.03375244140625,0.20166015625,-0.0001220703125,0.0,0.0,0.0,0.9999985098838806,0.031119704246520996,0.25008779764175415,-0.10276421159505844,0.9980541467666626,-0.0033301711082458496,0.1783437728881836,-0.35875631123781204,0.9992709159851074,,,,,,,,,,,,,,,,,,,,,,,,,,,,,,,,,,,,,,,,,,,,,,,,,,,,,,,,,,,,,,,
00f5f18a631b48fbbeda659831465925,1746300484.942101,5,Hand Close,71,102,61,35,46,39,216,230,0.01173549308723002,-0.021975434334051056,-0.5651297502958914,-0.5995101114847988,-0.10056797028286157,-0.18800760689944634,4.28321515308087,4.274514558134141,0.97882080078125,-0.03375244140625,0.20166015625,-0.0001220703125,0.0,0.0,0.0,0.9999985098838806,0.031119704246520996,0.25008779764175415,-0.10276421159505844,0.9980541467666626,-0.0033301711082458496,0.1783437728881836,-0.35875631123781204,0.9992709159851074,,,,,,,,,,,,,,,,,,,,,,,,,,,,,,,,,,,,,,,,,,,,,,,,,,,,,,,,,,,,,,,
4d76357dd80b445aa995149795057a5e,1746300484.943603,5,Hand Close,73,111,62,37,43,40,244,242,0.04156635938638239,0.09381192101297019,-0.5509952285148604,-0.5647046913234475,-0.1507670162602021,-0.17404173263127481,4.988875521182004,4.55289940641793,0.97882080078125,-0.03375244140625,0.20166015625,-0.0001220703125,0.0,0.0,0.0,0.9999985098838806,0.031119704246520996,0.25008779764175415,-0.10276421159505844,0.9980541467666626,-0.0033301711082458496,0.1783437728881836,-0.35875631123781204,0.9992709159851074,,,,,,,,,,,,,,,,,,,,,,,,,,,,,,,,,,,,,,,,,,,,,,,,,,,,,,,,,,,,,,,
f2a70095765549cab4e03afd9243f9fe,1746300484.950067,5,Hand Close,71,118,70,36,43,35,239,239,0.01173549308723002,0.18386875294954225,-0.43791905426661243,-0.5821074014041232,-0.1507670162602021,-0.24387110397213252,4.8628647411639445,4.483303194346982,0.97882080078125,-0.03375244140625,0.20166015625,-0.0001220703125,0.0,0.0,0.0,0.9999985098838806,0.031119704246520996,0.25008779764175415,-0.10276421159505844,0.9980541467666626,-0.0033301711082458496,0.1783437728881836,-0.35875631123781204,0.9992709159851074,,,,,,,,,,,,,,,,,,,,,,,,,,,,,,,,,,,,,,,,,,,,,,,,,,,,,,,,,,,,,,,
b8cde9beb10949d4b78235e84e5a5849,1746300484.957603,5,Hand Close,70,121,67,38,39,34,237,250,-0.0031799400623461647,0.222464538065216,-0.4803226196097054,-0.5473019812427719,-0.2176990775633228,-0.25783697824030405,4.812460429156721,4.738489305273789,0.9759521484375,-0.0142822265625,0.21734619140625,6.103515625e-05,0.0,0.0,0.0,0.9999985098838806,0.031119704246520996,0.25008779764175415,-0.10276421159505844,0.9980541467666626,-0.0033301711082458496,0.1783437728881836,-0.35875631123781204,0.9992709159851074,,,,,,,,,,,,,,,,,,,,,,,,,,,,,,,,,,,,,,,,,,,,,,,,,,,,,,,,,,,,,,,
046a9ec494464069aba2f009b56918b7,1746300484.958603,5,Hand Close,67,123,65,39,37,32,214,220,-0.04792623951107472,0.24819506147566517,-0.5085916631717674,-0.5298992711620962,-0.25116510821488314,-0.28576872677664716,4.232810841073646,4.042527184564317,0.9759521484375,-0.0142822265625,0.21734619140625,6.103515625e-05,0.0,0.0,0.0,0.9999985098838806,0.031119704246520996,0.25008779764175415,-0.10276421159505844,0.9980541467666626,-0.0033301711082458496,0.1783437728881836,-0.35875631123781204,0.9992709159851074,,,,,,,,,,,,,,,,,,,,,,,,,,,,,,,,,,,,,,,,,,,,,,,,,,,,,,,,,,,,,,,
ea1e31c87a2948478c1b8eedd09be2d7,1746300484.959603,5,Hand Close,52,98,57,37,36,28,204,149,-0.2716577367547175,-0.07343648115494938,-0.6216678374200153,-0.5647046913234475,-0.26789812354066334,-0.34163222384933334,3.9807892810375267,2.395416832218566,0.9759521484375,-0.0142822265625,0.21734619140625,6.103515625e-05,0.0,0.0,0.0,0.9999985098838806,0.031119704246520996,0.25008779764175415,-0.10276421159505844,0.9980541467666626,-0.0033301711082458496,0.1783437728881836,-0.35875631123781204,0.9992709159851074,,,,,,,,,,,,,,,,,,,,,,,,,,,,,,,,,,,,,,,,,,,,,,,,,,,,,,,,,,,,,,,
3966f2e47b7d45dbbab0e1d221138957,1746300484.960605,5,Hand Close,47,111,61,37,38,26,169,115,-0.3462349025025984,0.09381192101297019,-0.5651297502958914,-0.5647046913234475,-0.234432092889103,-0.3695639723856764,3.098713820911109,1.6066597620811645,0.9759521484375,-0.0142822265625,0.21734619140625,6.103515625e-05,0.0,0.0,0.0,0.9999985098838806,0.031119704246520996,0.25008779764175415,-0.10276421159505844,0.9980541467666626,-0.0033301711082458496,0.1783437728881836,-0.35875631123781204,0.9992709159851074,,,,,,,,,,,,,,,,,,,,,,,,,,,,,,,,,,,,,,,,,,,,,,,,,,,,,,,,,,,,,,,
1bd0e23851a643baaea9e32b94c49f82,1746300484.965126,5,Hand Close,44,174,141,56,35,22,64,107,-0.39098120195132696,0.9043234084421189,0.5656319921865881,-0.23405319979061,-0.28463113886644353,-0.4254274694583626,0.452487440531855,1.4210698632253054,0.9759521484375,-0.0142822265625,0.21734619140625,6.103515625e-05,0.0,0.0,0.0,0.9999985098838806,0.031119704246520996,0.25008779764175415,-0.10276421159505844,0.9980541467666626,-0.0033301711082458496,0.1783437728881836,-0.35875631123781204,0.9992709159851074,,,,,,,,,,,,,,,,,,,,,,,,,,,,,,,,,,,,,,,,,,,,,,,,,,,,,,,,,,,,,,,
49083fa3a56242d58d787f99294fe4a2,1746300484.965685,5,Hand Close,36,274,190,331,83,36,52,68,-0.5103046671479364,2.190849578964577,1.2582235594571067,4.551692072395196,0.518553596771005,-0.229905229703961,0.15006156848851177,0.5163191063029916,0.9759521484375,-0.0142822265625,0.21734619140625,6.103515625e-05,0.0,0.0,0.0,0.9999985098838806,0.031119704246520996,0.25008779764175415,-0.10276421159505844,0.9980541467666626,-0.0033301711082458496,0.1783437728881836,-0.35875631123781204,0.9992709159851074,,,,,,,,,,,,,,,,,,,,,,,,,,,,,,,,,,,,,,,,,,,,,,,,,,,,,,,,,,,,,,,
712f36ab6d774d61809cacaa6bf04ea6,1746300484.966688,5,Hand Close,179,337,242,428,93,36,44,60,1.622602273241458,3.001361066393726,1.9932186920707182,6.239754950220735,0.6858837500288067,-0.229905229703961,-0.05155567954038375,0.3307292074471324,0.9759521484375,-0.0142822265625,0.21734619140625,6.103515625e-05,0.0,0.0,0.0,0.9999985694885254,0.029045403003692627,0.25010448694229126,-0.10302311927080154,0.998137891292572,-0.0036711692810058594,0.17789864540100098,-0.3583538755774498,0.9993096590042114,,,,,,,,,,,,,,,,,,,,,,,,,,,,,,,,,,,,,,,,,,,,,,,,,,,,,,,,,,,,,,,
83905076a3b34b8dad9768810ae66df3,1746300484.97978,5,Hand Close,217,393,266,438,94,40,45,64,2.1893887329253525,3.721815721886302,2.332447214815462,6.413782051027491,0.702616765354587,-0.17404173263127481,-0.026353523536771815,0.42352415687506206,0.973388671875,0.01190185546875,0.228759765625,0.0006103515625,0.0,0.0,0.0,0.9999985694885254,0.029045403003692627,0.25010448694229126,-0.10302311927080154,0.998137891292572,-0.0036711692810058594,0.17789864540100098,-0.3583538755774498,0.9993096590042114,,,,,,,,,,,,,,,,,,,,,,,,,,,,,,,,,,,,,,,,,,,,,,,,,,,,,,,,,,,,,,,
0cec1cf3839541ebb5e27aa70dc30de4,1746300484.97978,5,Hand Close,305,454,272,445,95,40,47,67,3.501946850088057,4.506596685905002,2.417254345501648,6.535601021592221,0.719349780680367,-0.17404173263127481,0.024050788470452063,0.49312036894600925,0.973388671875,0.01190185546875,0.228759765625,0.0006103515625,0.0,0.0,0.0,0.9999985694885254,0.029045403003692627,0.25010448694229126,-0.10302311927080154,0.998137891292572,-0.0036711692810058594,0.17789864540100098,-0.3583538755774498,0.9993096590042114,,,,,,,,,,,,,,,,,,,,,,,,,,,,,,,,,,,,,,,,,,,,,,,,,,,,,,,,,,,,,,,
d50efda3aeff4aa28373c170954d851d,1746300484.981283,5,Hand Close,370,475,308,449,96,43,48,71,4.471450004810509,4.776767181714718,2.9260971296187637,6.605211861914923,0.7360827960061472,-0.1321441098267602,0.049252944474064,0.5859153183739388,0.973388671875,0.01190185546875,0.228759765625,0.0006103515625,0.0,0.0,0.0,0.9999985694885254,0.029045403003692627,0.25010448694229126,-0.10302311927080154,0.998137891292572,-0.0036711692810058594,0.17789864540100098,-0.3583538755774498,0.9993096590042114,,,,,,,,,,,,,,,,,,,,,,,,,,,,,,,,,,,,,,,,,,,,,,,,,,,,,,,,,,,,,,,
239a4b46dc7447a3ae328f8329ebd3ef,1746300484.981283,5,Hand Close,400,463,301,312,58,36,47,73,4.9189129992977945,4.622384041252023,2.827155477151547,4.221040580862359,0.10022821362650054,-0.229905229703961,0.024050788470452063,0.6323127930879037,0.973388671875,0.01190185546875,0.228759765625,0.0006103515625,0.0,0.0,0.0,0.9999985694885254,0.029045403003692627,0.25010448694229126,-0.10302311927080154,0.998137891292572,-0.0036711692810058594,0.17789864540100098,-0.3583538755774498,0.9993096590042114,,,,,,,,,,,,,,,,,,,,,,,,,,,,,,,,,,,,,,,,,,,,,,,,,,,,,,,,,,,,,,,
3b85b19f601a444ca78c35d76fde13a4,1746300484.982287,5,Hand Close,393,461,285,157,42,38,47,72,4.814504967250761,4.596653517841574,2.601003128655051,1.5236205183576312,-0.16750003158598228,-0.2019734811676179,0.024050788470452063,0.6091140557309213,0.973388671875,0.01190185546875,0.228759765625,0.0006103515625,0.0,0.0,0.0,0.9999985694885254,0.029045403003692627,0.25010448694229126,-0.10302311927080154,0.998137891292572,-0.0036711692810058594,0.17789864540100098,-0.3583538755774498,0.9993096590042114,,,,,,,,,,,,,,,,,,,,,,,,,,,,,,,,,,,,,,,,,,,,,,,,,,,,,,,,,,,,,,,
8a615f7f966f4345b71c7d498ea5039c,1746300484.994838,5,Hand Close,380,481,286,142,38,35,43,68,4.620604336306271,4.853958751946066,2.615137650436082,1.2625798671474964,-0.234432092889103,-0.24387110397213252,-0.07675783554399569,0.5163191063029916,0.9708251953125,0.046630859375,0.23492431640625,0.00054931640625,0.0,0.0,0.0,0.9999985694885254,0.029045403003692627,0.25010448694229126,-0.10302311927080154,0.998137891292572,-0.0036711692810058594,0.17789864540100098,-0.3583538755774498,0.9993096590042114,,,,,,,,,,,,,,,,,,,,,,,,,,,,,,,,,,,,,,,,,,,,,,,,,,,,,,,,,,,,,,,
2178775e76e14e289fb545aa661ca5db,1746300485.010864,5,Hand Close,336,592,376,143,41,39,42,71,3.9643252777249187,6.282002801225994,3.8872446107288714,1.279982577228172,-0.18423304691176245,-0.18800760689944634,-0.10195999154760763,0.5859153183739388,0.96771240234375,0.08465576171875,0.2373046875,-0.00042724609375,0.0,0.0,0.0,0.9999985694885254,0.029045403003692627,0.25010448694229126,-0.10302311927080154,0.998137891292572,-0.0036711692810058594,0.17789864540100098,-0.3583538755774498,0.9993096590042114,,,,,,,,,,,,,,,,,,,,,,,,,,,,,,,,,,,,,,,,,,,,,,,,,,,,,,,,,,,,,,,
44a0c88f91ce4aa0b7258cea55457550,1746300485.033293,5,Hand Close,299,727,416,141,48,42,44,70,3.4124542511905998,8.018813131431314,4.452625481970111,1.2451771570668209,-0.06710193963130122,-0.14610998409493173,-0.05155567954038375,0.5627165810169564,0.96392822265625,0.1197509765625,0.23748779296875,-0.00030517578125,0.0,0.0,0.0,0.9999986290931702,0.028209984302520752,0.2498951256275177,-0.1021212786436081,0.9982208013534546,-0.003887653350830078,0.17728379368782043,-0.35576771199703217,0.9993477463722229,,,,,,,,,,,,,,,,,,,,,,,,,,,,,,,,,,,,,,,,,,,,,,,,,,,,,,,,,,,,,,,
379b68930b0444c696b01a57afbf6858,1746300485.062399,5,Hand Close,334,842,550,157,59,44,62,86,3.9344944114257663,9.49831822753214,6.346651400628264,1.5236205183576312,0.11696122895228073,-0.11817823555858864,0.40208312852463113,0.9338963787286749,0.96087646484375,0.15020751953125,0.23248291015625,0.00048828125,0.0,0.0,0.0,0.9999986886978149,0.027794182300567627,0.24930423498153687,-0.1000763326883316,0.9982886910438538,-0.003938853740692139,0.17626720666885376,-0.3532680869102478,0.99937903881073,,,,,,,,,,,,,,,,,,,,,,,,,,,,,,,,,,,,,,,,,,,,,,,,,,,,,,,,,,,,,,,
8ac4f240ebf7487cbff09b9aa2894209,1746300485.077073,5,Hand Close,372,885,596,177,63,47,66,98,4.501280871109661,10.051524480856797,6.99683940255569,1.8716747199711445,0.18389329025540144,-0.07628061275407402,0.5028917525390789,1.2122812270124639,0.95843505859375,0.1796875,0.2213134765625,0.0009765625,0.0,0.0,0.0,0.9999986886978149,0.027794182300567627,0.24930423498153687,-0.1000763326883316,0.9982886910438538,-0.003938853740692139,0.17626720666885376,-0.3532680869102478,0.99937903881073,,,,,,,,,,,,,,,,,,,,,,,,,,,,,,,,,,,,,,,,,,,,,,,,,,,,,,,,,,,,,,,
6ea0b98e29194d95a1a261a38126b282,1746300485.093076,5,Hand Close,393,945,635,196,77,50,67,99,4.814504967250761,10.823440183170272,7.548085752015899,2.202326211503982,0.4181555048163239,-0.03438298994955939,0.5280939085426909,1.2354799643694463,0.95684814453125,0.20654296875,0.2041015625,-0.0003662109375,0.0,0.0,0.0,0.9999986886978149,0.027794182300567627,0.24930423498153687,-0.1000763326883316,0.9982886910438538,-0.003938853740692139,0.17626720666885376,-0.3532680869102478,0.99937903881073,,,,,,,,,,,,,,,,,,,,,,,,,,,,,,,,,,,,,,,,,,,,,,,,,,,,,,,,,,,,,,,
7df0ab483d3b4d8186fe3fa101a42aad,1746300485.116172,5,Hand Close,417,1013,617,189,76,52,81,94,5.17247536284059,11.698277979125544,7.293664359957341,2.0805072409392524,0.4014224894905437,-0.0064512414132163074,0.880924092593258,1.1194862775845342,0.95458984375,0.2353515625,0.182373046875,-0.00665283203125,0.0,0.0,0.0,0.9999986886978149,0.04132622480392456,0.22778326272964478,-0.1182277500629425,0.9983791708946228,-0.0046010613441467285,0.1323757767677307,-0.3719521164894104,0.999383270740509,,,,,,,,,,,,,,,,,,,,,,,,,,,,,,,,,,,,,,,,,,,,,,,,,,,,,,,,,,,,,,,
5d6374cfe85a4ce89c67b0be1fa3a5cd,1746300485.13778,5,Hand Close,520,1128,599,195,79,58,159,164,6.708764977246936,13.17778307522637,7.039242967898783,2.1849235014233064,0.45162153546788425,0.07734400419581294,2.8466922608749896,2.7433978925733022,0.950439453125,0.26580810546875,0.15960693359375,-0.02081298828125,0.0,0.0,0.0,0.9999986886978149,0.04132622480392456,0.22778326272964478,-0.1182277500629425,0.9983791708946228,-0.0046010613441467285,0.1323757767677307,-0.3719521164894104,0.999383270740509,,,,,,,,,,,,,,,,,,,,,,,,,,,,,,,,,,,,,,,,,,,,,,,,,,,,,,,,,,,,,,,
1437aa65caf54f6e908fb3febdc7e686,1746300485.153226,5,Hand Close,551,1142,578,180,75,57,204,213,7.171143404883798,13.357896739099514,6.742418010497132,1.9238828502131715,0.38468947416476357,0.0633781299276414,3.9807892810375267,3.88013602306544,0.94647216796875,0.29022216796875,0.13726806640625,-0.0323486328125,0.0,0.0,0.0,0.9999986886978149,0.04534059762954712,0.22201168537139893,-0.1245015449821949,0.9984564185142517,-0.0050858259201049805,0.12510621547698975,-0.37759141996502876,0.9993857741355896,,,,,,,,,,,,,,,,,,,,,,,,,,,,,,,,,,,,,,,,,,,,,,,,,,,,,,,,,,,,,,,
b38cfcaebcaa4037880395343b0b800e,1746300485.175347,5,Hand Close,535,1106,595,176,79,59,212,218,6.93249647449058,12.89474731771143,6.982704880774659,1.8542720098904688,0.45162153546788425,0.09130987846398449,4.182406529066422,3.996129709850352,0.9437255859375,0.30615234375,0.1185302734375,-0.03875732421875,0.0,0.0,0.0,0.9999986886978149,0.04534059762954712,0.22201168537139893,-0.1245015449821949,0.9984564185142517,-0.0050858259201049805,0.12510621547698975,-0.37759141996502876,0.9993857741355896,,,,,,,,,,,,,,,,,,,,,,,,,,,,,,,,,,,,,,,,,,,,,,,,,,,,,,,,,,,,,,,
1153f7877d714127885e1ce87a1fb11e,1746300485.198416,5,Hand Close,592,1195,596,151,69,59,214,228,7.782676164016423,14.039755609476417,6.99683940255569,1.4192042578735773,0.2842913822100825,0.09130987846398449,4.232810841073646,4.228117083420176,0.94183349609375,0.318359375,0.09881591796875,-0.04205322265625,0.0,0.0,0.0,0.9999986290931702,0.04768645763397217,0.2226579487323761,-0.13134251162409782,0.9985182881355286,-0.005029499530792236,0.11855974793434143,-0.388484638184309,0.9993968605995178,,,,,,,,,,,,,,,,,,,,,,,,,,,,,,,,,,,,,,,,,,,,,,,,,,,,,,,,,,,,,,,
9cdc9945f9964d878bcd7164b4c67647,1746300485.220309,5,Hand Close,632,1225,671,158,76,62,215,277,8.37929348999947,14.425713460633155,8.056928536133015,1.541023228438307,0.4014224894905437,0.13320750126849912,4.258012997077258,5.364855213912314,0.94134521484375,0.32489013671875,0.07879638671875,-0.0455322265625,0.0,0.0,0.0,0.9999986290931702,0.04768645763397217,0.2226579487323761,-0.13134251162409782,0.9985182881355286,-0.005029499530792236,0.11855974793434143,-0.388484638184309,0.9993968605995178,,,,,,,,,,,,,,,,,,,,,,,,,,,,,,,,,,,,,,,,,,,,,,,,,,,,,,,,,,,,,,,
4fb18644a61d4c55afb56a33e3cc0980,1746300485.235922,5,Hand Close,616,1091,725,154,74,55,186,253,8.140646559606251,12.701768392133062,8.820192712308687,1.4714123881156043,0.36795645883898337,0.03544638139129832,3.5271504729725116,4.808085517344736,0.9405517578125,0.33074951171875,0.05914306640625,-0.049072265625,0.0,0.0,0.0,0.9999986290931702,0.04768645763397217,0.2226579487323761,-0.13134251162409782,0.9985182881355286,-0.005029499530792236,0.11855974793434143,-0.388484638184309,0.9993968605995178,,,,,,,,,,,,,,,,,,,,,,,,,,,,,,,,,,,,,,,,,,,,,,,,,,,,,,,,,,,,,,,
1389b902b5e2418dbaad869f626ba291,1746300485.250224,5,Hand Close,604,1079,723,160,74,56,219,262,7.961661361811337,12.547385251670367,8.791923668746627,1.5758286485996582,0.36795645883898337,0.04941225565946986,4.358821621091706,5.016874153557578,0.93865966796875,0.3380126953125,0.0423583984375,-0.05303955078125,0.0,0.0,0.0,0.9999983906745911,0.04814624786376953,0.22174301743507385,-0.13791997730731964,0.9984928369522095,-0.0064484477043151855,0.11043384671211243,-0.4026092439889908,0.999350905418396,,,,,,,,,,,,,,,,,,,,,,,,,,,,,,,,,,,,,,,,,,,,,,,,,,,,,,,,,,,,,,,
4b4d7d1d4ea24afc9e9cc1215a9bb516,1746300485.273455,5,Hand Close,625,1187,679,151,70,54,223,269,8.274885457952436,13.936833515834621,8.170004710381262,1.4192042578735773,0.3010243975358627,0.021480507123126776,4.459630245106154,5.179265315056455,0.93597412109375,0.34600830078125,0.02899169921875,-0.0576171875,0.0,0.0,0.0,0.9999983906745911,0.04814624786376953,0.22174301743507385,-0.13791997730731964,0.9984928369522095,-0.0064484477043151855,0.11043384671211243,-0.4026092439889908,0.999350905418396,,,,,,,,,,,,,,,,,,,,,,,,,,,,,,,,,,,,,,,,,,,,,,,,,,,,,,,,,,,,,,,
3ebb9e4e47d14a73a3867647385ebdc9,1746300485.295045,5,Hand Close,576,1111,686,153,68,52,223,264,7.544029233623203,12.959073626237553,8.26894636284848,1.4540096780349288,0.2675583668843023,-0.0064512414132163074,4.459630245106154,5.063271628271543,0.93310546875,0.35369873046875,0.018310546875,-0.06134033203125,0.0,0.0,0.0,0.9999974370002747,0.04701662063598633,0.21522700786590576,-0.14117363840341568,0.9982260465621948,-0.004013359546661377,0.0973212718963623,-0.4048759713768959,0.9992060661315918,,,,,,,,,,,,,,,,,,,,,,,,,,,,,,,,,,,,,,,,,,,,,,,,,,,,,,,,,,,,,,,
ca48197baec94ca79753ec671077d13b,1746300485.311107,5,Hand Close,603,1066,645,150,65,54,232,224,7.946745928661761,12.380136849502447,7.689430969826208,1.4018015477929018,0.21735932090696178,0.021480507123126776,4.686449649138661,4.135322133992246,0.9306640625,0.36004638671875,0.009033203125,-0.0638427734375,0.0,0.0,0.0,0.9999974370002747,0.04701662063598633,0.21522700786590576,-0.14117363840341568,0.9982260465621948,-0.004013359546661377,0.0973212718963623,-0.4048759713768959,0.9992060661315918,,,,,,,,,,,,,,,,,,,,,,,,,,,,,,,,,,,,,,,,,,,,,,,,,,,,,,,,,,,,,,,
1c587890e4bb4c629c99683f3e0457de,1746300485.333185,5,Hand Close,576,1085,609,146,65,55,226,228,7.544029233623203,12.624576821901714,7.180588185709093,1.332190707470199,0.21735932090696178,0.03544638139129832,4.53523671311699,4.228117083420176,0.9287109375,0.36474609375,0.001708984375,-0.06640625,0.0,0.0,0.0,0.9999974370002747,0.04701662063598633,0.21522700786590576,-0.14117363840341568,0.9982260465621948,-0.004013359546661377,0.0973212718963623,-0.4048759713768959,0.9992060661315918,,,,,,,,,,,,,,,,,,,,,,,,,,,,,,,,,,,,,,,,,,,,,,,,,,,,,,,,,,,,,,,
e7eb7864d5094a1fb670da727d6c3bbf,1746300485.355545,5,Hand Close,586,1099,610,144,69,54,147,221,7.693183565118965,12.804690485774858,7.194722707490124,1.2973852873088478,0.2842913822100825,0.021480507123126776,2.5442663888316464,4.0657259219213,0.9261474609375,0.37066650390625,-0.00445556640625,-0.0684814453125,0.0,0.0,0.0,0.9999969601631165,0.04562479257583618,0.20960968732833862,-0.14813444018363953,0.9979740381240845,0.002264678478240967,0.07945245504379272,-0.41152961552143097,0.9991108179092407,,,,,,,,,,,,,,,,,,,,,,,,,,,,,,,,,,,,,,,,,,,,,,,,,,,,,,,,,,,,,,,
e0d2b8289964404e86e1329e8fefed17,1746300485.377603,5,Hand Close,560,1083,661,145,70,52,132,216,7.305382303229984,12.598846298491264,7.915583318322704,1.3147879973895233,0.3010243975358627,-0.0064512414132163074,2.166234048777467,3.9497322351363873,0.9224853515625,0.37939453125,-0.009765625,-0.06982421875,0.0,0.0,0.0,0.9999969601631165,0.04562479257583618,0.20960968732833862,-0.14813444018363953,0.9979740381240845,0.002264678478240967,0.07945245504379272,-0.41152961552143097,0.9991108179092407,,,,,,,,,,,,,,,,,,,,,,,,,,,,,,,,,,,,,,,,,,,,,,,,,,,,,,,,,,,,,,,
59b3a26b6cba49d7abd05ab55160ec3a,1746300485.393217,5,Hand Close,617,1166,623,145,69,52,130,215,8.155561992755826,13.666663020024904,7.378471490643527,1.3147879973895233,0.2842913822100825,-0.0064512414132163074,2.115829736770243,3.926533497779405,0.91790771484375,0.38995361328125,-0.01385498046875,-0.0712890625,0.0,0.0,0.0,0.9999960660934448,0.047880589962005615,0.18522727489471436,-0.16514386236667633,0.9977761507034302,0.005999505519866943,0.06949067115783691,-0.4536018967628479,0.9988062381744385,,,,,,,,,,,,,,,,,,,,,,,,,,,,,,,,,,,,,,,,,,,,,,,,,,,,,,,,,,,,,,,
d2dccffc43e94348929b860a20c793df,1746300485.41525,5,Hand Close,592,1181,609,140,64,46,102,211,7.782676164016423,13.859641945603274,7.180588185709093,1.2277744469861451,0.2006263055811816,-0.09024648702224555,1.4101693686691088,3.833738548351475,0.91302490234375,0.4007568359375,-0.01617431640625,-0.073486328125,0.0,0.0,0.0,0.9999960660934448,0.047880589962005615,0.18522727489471436,-0.16514386236667633,0.9977761507034302,0.005999505519866943,0.06949067115783691,-0.4536018967628479,0.9988062381744385,,,,,,,,,,,,,,,,,,,,,,,,,,,,,,,,,,,,,,,,,,,,,,,,,,,,,,,,,,,,,,,
166f3f6cd7b14a50b226dec56fd5f7a2,1746300485.437293,5,Hand Close,575,1190,607,129,61,43,99,222,7.529113800473627,13.975429300950294,7.1523191421470305,1.036344636098713,0.15042725960384107,-0.1321441098267602,1.3345629006582729,4.088924659278282,0.9083251953125,0.4107666015625,-0.0181884765625,-0.07586669921875,0.0,0.0,0.0,0.999993622303009,0.0435103178024292,0.15157723426818848,-0.17344357073307037,0.9961332082748413,0.02062511444091797,0.012068718671798706,-0.44922374188899994,0.9968817830085754,,,,,,,,,,,,,,,,,,,,,,,,,,,,,,,,,,,,,,,,,,,,,,,,,,,,,,,,,,,,,,,
d8928a2ef1334244be647e1994c759b2,1746300485.460338,5,Hand Close,539,1152,526,117,50,42,114,206,6.992158207088884,13.48654935615176,6.007422877883521,0.8275121151306051,-0.033635908979740864,-0.14610998409493173,1.712595240712452,3.717744861566563,0.9044189453125,0.4188232421875,-0.0196533203125,-0.0782470703125,0.0,0.0,0.0,0.999993622303009,0.0435103178024292,0.15157723426818848,-0.17344357073307037,0.9961332082748413,0.02062511444091797,0.012068718671798706,-0.44922374188899994,0.9968817830085754,,,,,,,,,,,,,,,,,,,,,,,,,,,,,,,,,,,,,,,,,,,,,,,,,,,,,,,,,,,,,,,
e2c9c46361604cfcb242ff9f568a254e,1746300485.475431,5,Hand Close,554,1081,457,109,47,44,174,211,7.215889704332527,12.573115775080815,5.032140874992382,0.6882904344851998,-0.08383495495708139,-0.11817823555858864,3.2247246009291683,3.833738548351475,0.90167236328125,0.42431640625,-0.0198974609375,-0.0804443359375,0.0,0.0,0.0,0.9999921321868896,0.03969252109527588,0.13445740938186646,-0.17139577865600586,0.9943617582321167,0.022495567798614502,0.01745542883872986,-0.4555557817220688,0.9956445097923279,,,,,,,,,,,,,,,,,,,,,,,,,,,,,,,,,,,,,,,,,,,,,,,,,,,,,,,,,,,,,,,
bd9fd05211df4dd0a22d769095a6dc07,1746300485.497656,5,Hand Close,515,973,482,99,50,42,185,216,6.634187811499055,11.18366751091656,5.385503919518157,0.5142633336784432,-0.033635908979740864,-0.14610998409493173,3.5019483169688996,3.9497322351363873,0.89990234375,0.42779541015625,-0.01959228515625,-0.0819091796875,0.0,0.0,0.0,0.9999921321868896,0.03969252109527588,0.13445740938186646,-0.17139577865600586,0.9943617582321167,0.022495567798614502,0.01745542883872986,-0.4555557817220688,0.9956445097923279,,,,,,,,,,,,,,,,,,,,,,,,,,,,,,,,,,,,,,,,,,,,,,,,,,,,,,,,,,,,,,,
e64294a7230947b399f42b542e9efea0,1746300485.5201,5,Hand Close,461,838,471,91,51,42,189,210,5.828754421421942,9.446857180711241,5.230024179926816,0.375041653033038,-0.01690289365396069,-0.14610998409493173,3.6027569409833475,3.810539810994493,0.8985595703125,0.43023681640625,-0.01861572265625,-0.08380126953125,0.0,0.0,0.0,0.9999871850013733,0.042763710021972656,0.13102421164512634,-0.16819794476032257,0.9920179843902588,0.032774150371551514,-0.032566457986831665,-0.4371452182531357,0.9933413863182068,,,,,,,,,,,,,,,,,,,,,,,,,,,,,,,,,,,,,,,,,,,,,,,,,,,,,,,,,,,,,,,
2ce2c31cc0d7480fbd07aa7823339e45,1746300485.53589,5,Hand Close,449,877,459,101,51,44,181,189,5.649769223627027,9.948602387215,5.060409918554444,0.5490687538397946,-0.01690289365396069,-0.11817823555858864,3.401139692954452,3.3233663264978626,0.8973388671875,0.432373046875,-0.01812744140625,-0.08612060546875,0.0,0.0,0.0,0.9999871850013733,0.042763710021972656,0.13102421164512634,-0.16819794476032257,0.9920179843902588,0.032774150371551514,-0.032566457986831665,-0.4371452182531357,0.9933413863182068,,,,,,,,,,,,,,,,,,,,,,,,,,,,,,,,,,,,,,,,,,,,,,,,,,,,,,,,,,,,,,,
b99433db293d42ab9c5199c26eb4d857,1746300485.557812,5,Hand Close,434,933,465,107,58,44,196,160,5.4260377263833846,10.669057042707577,5.14521704924063,0.6534850143238485,0.10022821362650054,-0.11817823555858864,3.7791720330086314,2.6506029431453726,0.896240234375,0.434326171875,-0.01800537109375,-0.0877685546875,0.0,0.0,0.0,0.9999871850013733,0.042763710021972656,0.13102421164512634,-0.16819794476032257,0.9920179843902588,0.032774150371551514,-0.032566457986831665,-0.4371452182531357,0.9933413863182068,,,,,,,,,,,,,,,,,,,,,,,,,,,,,,,,,,,,,,,,,,,,,,,,,,,,,,,,,,,,,,,
70a872a7cb0546b8b7c39c5c9de071b2,1746300485.580391,5,Hand Close,480,964,497,122,63,46,172,200,6.112147651263889,11.06788015556954,5.597521746233621,0.9145256655339833,0.18389329025540144,-0.09024648702224555,3.174320288921945,3.5785524374246687,0.89556884765625,0.435546875,-0.01751708984375,-0.08856201171875,0.0,0.0,0.0,0.9999818801879883,0.03966522216796875,0.10315719246864319,-0.1475064642727375,0.9872133731842041,0.04076719284057617,-0.05495119094848633,-0.3626095838844776,0.9896712303161621,,,,,,,,,,,,,,,,,,,,,,,,,,,,,,,,,,,,,,,,,,,,,,,,,,,,,,,,,,,,,,,
bb9422b062b84060a4153c1df7b65d43,1746300485.595111,5,Hand Close,438,927,462,120,60,45,167,194,5.485699458981689,10.59186547247623,5.1028134838975365,0.879720245372632,0.1336942442780609,-0.1042123612904171,3.048309508903885,3.4393600132827746,0.89532470703125,0.43609619140625,-0.0162353515625,-0.0888671875,0.0,0.0,0.0,0.9999818801879883,0.03966522216796875,0.10315719246864319,-0.1475064642727375,0.9872133731842041,0.04076719284057617,-0.05495119094848633,-0.3626095838844776,0.9896712303161621,,,,,,,,,,,,,,,,,,,,,,,,,,,,,,,,,,,,,,,,,,,,,,,,,,,,,,,,,,,,,,,
736e5798430c4e68b7f5db3aa930f1b5,1746300485.617672,5,Hand Close,493,980,510,120,57,43,173,202,6.30604828220838,11.273724342853132,5.781270529387024,0.879720245372632,0.08349519830072037,-0.1321441098267602,3.1995224449255564,3.6249499121386335,0.89544677734375,0.43585205078125,-0.0145263671875,-0.0888671875,0.0,0.0,0.0,0.999974250793457,0.040436387062072754,0.10910630226135254,-0.1372949406504631,0.9806252121925354,0.04243457317352295,-0.05168691277503967,-0.3478819653391838,0.9855775833129883,,,,,,,,,,,,,,,,,,,,,,,,,,,,,,,,,,,,,,,,,,,,,,,,,,,,,,,,,,,,,,,
2f452c9f1b044d369930141cd6eed1a3,1746300485.632917,5,Hand Close,500,953,543,113,56,41,176,195,6.410456314255413,10.92636227681207,6.247709748161047,0.7579012748079024,0.06676218297494019,-0.16007585836310326,3.2751289129363923,3.462558750639757,0.895751953125,0.4354248046875,-0.01251220703125,-0.08868408203125,0.0,0.0,0.0,0.999974250793457,0.040436387062072754,0.10910630226135254,-0.1372949406504631,0.9806252121925354,0.04243457317352295,-0.05168691277503967,-0.3478819653391838,0.9855775833129883,,,,,,,,,,,,,,,,,,,,,,,,,,,,,,,,,,,,,,,,,,,,,,,,,,,,,,,,,,,,,,,
71ea6218f1ad4baeb2e3da1f1238d6e3,1746300485.655448,5,Hand Close,501,868,590,118,54,41,156,201,6.425371747404989,9.832815031867979,6.912032271869504,0.8449148252112807,0.03329615232337984,-0.16007585836310326,2.7710857928641537,3.601751174781651,0.89544677734375,0.43609619140625,-0.0107421875,-0.0880126953125,0.0,0.0,0.0,0.999974250793457,0.040436387062072754,0.10910630226135254,-0.1372949406504631,0.9806252121925354,0.04243457317352295,-0.05168691277503967,-0.3478819653391838,0.9855775833129883,,,,,,,,,,,,,,,,,,,,,,,,,,,,,,,,,,,,,,,,,,,,,,,,,,,,,,,,,,,,,,,
2c7f1bfe0cbb46aba1f28acd6ab45c0c,1746300485.677553,5,Hand Close,482,915,577,106,53,41,133,207,6.141978517563041,10.437482332013534,6.728283488716101,0.6360823042431728,0.016563136997599662,-0.16007585836310326,2.191436204781079,3.7409435989235456,0.89459228515625,0.4381103515625,-0.00933837890625,-0.08746337890625,0.0,0.0,0.0,0.999967098236084,0.04241830110549927,0.10871937870979309,-0.11214494705200195,0.9767532348632812,0.043282389640808105,-0.07143044471740723,-0.29033467173576355,0.9802303910255432,,,,,,,,,,,,,,,,,,,,,,,,,,,,,,,,,,,,,,,,,,,,,,,,,,,,,,,,,,,,,,,
d5c99a3d0e5847e6ae08ad0e413387d9,1746300485.693557,5,Hand Close,514,1063,614,108,54,49,148,212,6.619272378349479,12.341541064386773,7.2512607946142476,0.6708877244045242,0.03329615232337984,-0.048348864217730936,2.569468544835258,3.8569372857084576,0.8936767578125,0.43994140625,-0.00787353515625,-0.08740234375,0.0,0.0,0.0,0.999967098236084,0.04241830110549927,0.10871937870979309,-0.11214494705200195,0.9767532348632812,0.043282389640808105,-0.07143044471740723,-0.29033467173576355,0.9802303910255432,,,,,,,,,,,,,,,,,,,,,,,,,,,,,,,,,,,,,,,,,,,,,,,,,,,,,,,,,,,,,,,
1c8f97521c7944dab263a1796ff168a4,1746300485.715441,5,Hand Close,458,1034,558,104,52,47,180,211,5.784008121973213,11.96844847493526,6.459727574876512,0.6012768840818216,-0.00016987832818051362,-0.07628061275407402,3.37593753695084,3.833738548351475,0.8927001953125,0.44189453125,-0.00689697265625,-0.08746337890625,0.0,0.0,0.0,0.9999626278877258,0.04539632797241211,0.10654795169830322,-0.12551497668027878,0.9733952283859253,0.04062694311141968,-0.04511401057243347,-0.3337038680911064,0.9751442670822144,,,,,,,,,,,,,,,,,,,,,,,,,,,,,,,,,,,,,,,,,,,,,,,,,,,,,,,,,,,,,,,
d349d9d598214544b1d95016463be5cf,1746300485.737223,5,Hand Close,444,1046,496,100,53,47,178,223,5.575192057879146,12.122831615397955,5.583387224452591,0.5316660437591189,0.016563136997599662,-0.07628061275407402,3.3255332249436163,4.112123396635265,0.89154052734375,0.4443359375,-0.00604248046875,-0.0872802734375,0.0,0.0,0.0,0.9999626278877258,0.04539632797241211,0.10654795169830322,-0.12551497668027878,0.9733952283859253,0.04062694311141968,-0.04511401057243347,-0.3337038680911064,0.9751442670822144,,,,,,,,,,,,,,,,,,,,,,,,,,,,,,,,,,,,,,,,,,,,,,,,,,,,,,,,,,,,,,,
e96c46e51464431092def27805007843,1746300485.75337,5,Hand Close,431,1113,420,94,51,46,179,212,5.381291426934657,12.984804149648001,4.509163569094235,0.42724978327506496,-0.01690289365396069,-0.09024648702224555,3.3507353809472282,3.8569372857084576,0.89031982421875,0.44677734375,-0.00506591796875,-0.08709716796875,0.0,0.0,0.0,0.9999508857727051,0.04495972394943237,0.07390663027763367,-0.1378418728709221,0.9695552587509155,0.05467569828033447,-0.10104739665985107,-0.33883266896009445,0.9720582962036133,,,,,,,,,,,,,,,,,,,,,,,,,,,,,,,,,,,,,,,,,,,,,,,,,,,,,,,,,,,,,,,
7bf65647114040d28efc363cc1676500,1746300485.77467,5,Hand Close,375,1116,459,109,58,50,185,149,4.54602717055839,13.023399934763676,5.060409918554444,0.6882904344851998,0.10022821362650054,-0.03438298994955939,3.5019483169688996,2.395416832218566,0.88958740234375,0.44818115234375,-0.00439453125,-0.08746337890625,0.0,0.0,0.0,0.9999508857727051,0.04495972394943237,0.07390663027763367,-0.1378418728709221,0.9695552587509155,0.05467569828033447,-0.10104739665985107,-0.33883266896009445,0.9720582962036133,,,,,,,,,,,,,,,,,,,,,,,,,,,,,,,,,,,,,,,,,,,,,,,,,,,,,,,,,,,,,,,
8feb7da5c9544874badddacbec2be589,1746300485.797704,5,Hand Close,334,1028,412,106,57,43,174,179,3.9344944114257663,11.891256904703912,4.396087394845987,0.6360823042431728,0.08349519830072037,-0.1321441098267602,3.2247246009291683,3.0913789529280384,0.88934326171875,0.448486328125,-0.0042724609375,-0.08831787109375,0.0,0.0,0.0,0.9999508857727051,0.04495972394943237,0.07390663027763367,-0.1378418728709221,0.9695552587509155,0.05467569828033447,-0.10104739665985107,-0.33883266896009445,0.9720582962036133,,,,,,,,,,,,,,,,,,,,,,,,,,,,,,,,,,,,,,,,,,,,,,,,,,,,,,,,,,,,,,,
205596504a47496baddf5b1af5b5a671,1746300485.819844,5,Hand Close,384,1091,402,109,58,45,144,192,4.680266068904576,12.701768392133062,4.254742177035677,0.6882904344851998,0.10022821362650054,-0.1042123612904171,2.4686599208208104,3.39296253856881,0.88916015625,0.44866943359375,-0.004638671875,-0.08917236328125,0.0,0.0,0.0,0.9999427795410156,0.04703652858734131,0.09169545769691467,-0.13313841074705124,0.966011643409729,0.05369466543197632,-0.07587659358978271,-0.33341801911592484,0.9697362780570984,,,,,,,,,,,,,,,,,,,,,,,,,,,,,,,,,,,,,,,,,,,,,,,,,,,,,,,,,,,,,,,
80c34dd155914747b70a0b371b9664b9,1746300485.835884,5,Hand Close,381,1048,399,106,57,45,151,186,4.635519769455847,12.148562138808405,4.2123386116925845,0.6360823042431728,0.08349519830072037,-0.1042123612904171,2.645075012846094,3.2537701144269153,0.88861083984375,0.44964599609375,-0.00457763671875,-0.08978271484375,0.0,0.0,0.0,0.9999427795410156,0.04703652858734131,0.09169545769691467,-0.13313841074705124,0.966011643409729,0.05369466543197632,-0.07587659358978271,-0.33341801911592484,0.9697362780570984,,,,,,,,,,,,,,,,,,,,,,,,,,,,,,,,,,,,,,,,,,,,,,,,,,,,,,,,,,,,,,,
22f8dd1662c8466c8b232c6650cb2db5,1746300485.857398,5,Hand Close,414,1026,399,100,55,46,143,192,5.127729063391861,11.865526381293463,4.2123386116925845,0.5316660437591189,0.05002916764916002,-0.09024648702224555,2.4434577648171985,3.39296253856881,0.887939453125,0.45098876953125,-0.0042724609375,-0.090087890625,0.0,0.0,0.0,0.9999370574951172,0.045041024684906006,0.0805828869342804,-0.1088113971054554,0.9622172117233276,0.058050692081451416,-0.061358481645584106,-0.28990307822823524,0.9663581848144531,,,,,,,,,,,,,,,,,,,,,,,,,,,,,,,,,,,,,,,,,,,,,,,,,,,,,,,,,,,,,,,
bd8970ab79ba4fcd8df663ed1158cbac,1746300485.879643,5,Hand Close,419,976,307,64,38,35,140,216,5.202306229139742,11.222263296032235,2.911962607837733,-0.09483151914520475,-0.234432092889103,-0.24387110397213252,2.3678512968063625,3.9497322351363873,0.88720703125,0.45245361328125,-0.0035400390625,-0.090087890625,0.0,0.0,0.0,0.9999370574951172,0.045041024684906006,0.0805828869342804,-0.1088113971054554,0.9622172117233276,0.058050692081451416,-0.061358481645584106,-0.28990307822823524,0.9663581848144531,,,,,,,,,,,,,,,,,,,,,,,,,,,,,,,,,,,,,,,,,,,,,,,,,,,,,,,,,,,,,,,
22524462867a4da48034c71c36c83fae,1746300485.895208,5,Hand Close,417,905,315,75,40,33,138,200,5.17247536284059,10.30882971496129,3.0250387820859808,0.09659829174222746,-0.20096606223754263,-0.2718028525084756,2.3174469847991386,3.5785524374246687,0.88623046875,0.45428466796875,-0.00286865234375,-0.09027099609375,0.0,0.0,0.0,0.9999369978904724,0.051089733839035034,0.08879208564758301,-0.12395310774445534,0.9614830017089844,0.05059078335762024,-0.05687528848648071,-0.32407570257782936,0.9667122960090637,,,,,,,,,,,,,,,,,,,,,,,,,,,,,,,,,,,,,,,,,,,,,,,,,,,,,,,,,,,,,,,
24a1d8bff3bd422fb56c560f4fd240c7,1746300485.917921,5,Hand Close,366,831,346,76,39,31,124,184,4.411788272212204,9.35680034877467,3.4632089572979416,0.11400100182290313,-0.2176990775633228,-0.2997346010448187,1.9646168007485716,3.2073726397129505,0.88531494140625,0.45611572265625,-0.00238037109375,-0.09014892578125,0.0,0.0,0.0,0.9999369978904724,0.051089733839035034,0.08879208564758301,-0.12395310774445534,0.9614830017089844,0.05059078335762024,-0.05687528848648071,-0.32407570257782936,0.9667122960090637,,,,,,,,,,,,,,,,,,,,,,,,,,,,,,,,,,,,,,,,,,,,,,,,,,,,,,,,,,,,,,,
09b12003f8fe4eb89c1e0d2b5f771362,1746300485.947806,5,Hand Close,346,819,325,85,48,38,120,207,4.113479609220681,9.202417208311974,3.166383999896291,0.27062539254898405,-0.06710193963130122,-0.2019734811676179,1.8638081767341237,3.7409435989235456,0.884521484375,0.4576416015625,-0.00128173828125,-0.0899658203125,0.0,0.0,0.0,0.9999372363090515,0.05161494016647339,0.09342676401138306,-0.1249551922082901,0.961073637008667,0.03621339797973633,-0.04771554470062256,-0.31968240439891815,0.966442883014679,,,,,,,,,,,,,,,,,,,,,,,,,,,,,,,,,,,,,,,,,,,,,,,,,,,,,,,,,,,,,,,
771498f7ae194bd69ad82e38e7bc5a2b,1746300485.955848,5,Hand Close,325,748,324,86,46,36,115,238,3.8002555130795805,8.288983627241029,3.1522494781152597,0.28802810262965967,-0.10056797028286157,-0.229905229703961,1.737797396716064,4.46010445699,0.8841552734375,0.45843505859375,0.0,-0.0894775390625,0.0,0.0,0.0,0.9999372363090515,0.05161494016647339,0.09342676401138306,-0.1249551922082901,0.961073637008667,0.03621339797973633,-0.04771554470062256,-0.31968240439891815,0.966442883014679,,,,,,,,,,,,,,,,,,,,,,,,,,,,,,,,,,,,,,,,,,,,,,,,,,,,,,,,,,,,,,,
f4c93490451c4cea82328efd7e7158f1,1746300485.977357,5,Hand Close,363,779,368,92,54,45,107,221,4.3670419727634755,8.687806740102992,3.7741684364806236,0.3924443631137136,0.03329615232337984,-0.1042123612904171,1.5361801486871685,4.0657259219213,0.88397216796875,0.4588623046875,0.00103759765625,-0.0892333984375,0.0,0.0,0.0,0.9999372363090515,0.05161494016647339,0.09342676401138306,-0.1249551922082901,0.961073637008667,0.03621339797973633,-0.04771554470062256,-0.31968240439891815,0.966442883014679,,,,,,,,,,,,,,,,,,,,,,,,,,,,,,,,,,,,,,,,,,,,,,,,,,,,,,,,,,,,,,,
cf4f030662314d5ab3f40cd76c9ef71d,1746300485.999686,5,Hand Close,358,777,343,83,54,49,108,216,4.292464807015595,8.662076216692542,3.4208053919548487,0.23581997238763272,0.03329615232337984,-0.048348864217730936,1.5613823046907804,3.9497322351363873,0.8836669921875,0.45947265625,0.00164794921875,-0.089111328125,0.0,0.0,0.0,0.9999396800994873,0.05398586392402649,0.10542333126068115,-0.13616805896162987,0.9621542096138,0.026222556829452515,-0.022995084524154663,-0.32918738946318626,0.9676645994186401,,,,,,,,,,,,,,,,,,,,,,,,,,,,,,,,,,,,,,,,,,,,,,,,,,,,,,,,,,,,,,,
229e10ccd06749948521f37cdafd5a34,1746300486.023433,5,Hand Close,372,814,312,78,54,48,111,212,4.501280871109661,9.138090899785851,2.982635216742888,0.14880642198425442,0.03329615232337984,-0.06231473848590247,1.6369887727016164,3.8569372857084576,0.88360595703125,0.4595947265625,0.001953125,-0.08929443359375,0.0,0.0,0.0,0.9999396800994873,0.05398586392402649,0.10542333126068115,-0.13616805896162987,0.9621542096138,0.026222556829452515,-0.022995084524154663,-0.32918738946318626,0.9676645994186401,,,,,,,,,,,,,,,,,,,,,,,,,,,,,,,,,,,,,,,,,,,,,,,,,,,,,,,,,,,,,,,
d479e95ff95040e69bfe725b377653d5,1746300486.03754,5,Hand Close,377,802,319,81,48,42,101,183,4.575858036857542,8.983707759323156,3.081576869210105,0.2010145522262814,-0.06710193963130122,-0.14610998409493173,1.3849672126654968,3.184173902355968,0.88372802734375,0.45916748046875,0.00238037109375,-0.0899658203125,0.0,0.0,0.0,0.999942421913147,0.05621272325515747,0.1060643196105957,-0.1318752020597458,0.9632552266120911,0.028880834579467773,-0.013272881507873535,-0.3336820602416992,0.9686394929885864,,,,,,,,,,,,,,,,,,,,,,,,,,,,,,,,,,,,,,,,,,,,,,,,,,,,,,,,,,,,,,,
e70c0ba0428e48bfb1393311465dedfd,1746300486.06006,5,Hand Close,362,772,321,82,51,44,106,131,4.3521265396138995,8.597749908166419,3.1098459127721667,0.21841726230695707,-0.01690289365396069,-0.11817823555858864,1.5109779926835565,1.977839559792883,0.8841552734375,0.458251953125,0.00244140625,-0.090576171875,0.0,0.0,0.0,0.999942421913147,0.05621272325515747,0.1060643196105957,-0.1318752020597458,0.9632552266120911,0.028880834579467773,-0.013272881507873535,-0.3336820602416992,0.9686394929885864,,,,,,,,,,,,,,,,,,,,,,,,,,,,,,,,,,,,,,,,,,,,,,,,,,,,,,,,,,,,,,,
6fddaed414124c95a76f2e23e8fb7032,1746300486.075673,5,Hand Close,294,686,275,80,46,37,111,127,3.337877085442719,7.4913374015171055,2.459657910844741,0.18361184214560575,-0.10056797028286157,-0.21593935543578943,1.6369887727016164,1.8850446103649534,0.8848876953125,0.45672607421875,0.00244140625,-0.091064453125,0.0,0.0,0.0,0.999942421913147,0.05621272325515747,0.1060643196105957,-0.1318752020597458,0.9632552266120911,0.028880834579467773,-0.013272881507873535,-0.3336820602416992,0.9686394929885864,,,,,,,,,,,,,,,,,,,,,,,,,,,,,,,,,,,,,,,,,,,,,,,,,,,,,,,,,,,,,,,
210ff3d3955c4108bac6b9fa8a834679,1746300486.09755,5,Hand Close,320,717,299,84,47,34,99,112,3.7256783473316997,7.890160514379067,2.7988864335894847,0.25322268246830837,-0.08383495495708139,-0.25783697824030405,1.3345629006582729,1.5370635500102172,0.8858642578125,0.4547119140625,0.0028076171875,-0.09161376953125,0.0,0.0,0.0,0.9999434947967529,0.05129581689834595,0.10329407453536987,-0.12238692864775658,0.963245689868927,0.03209865093231201,-0.01458391547203064,-0.3181646727025509,0.9688794016838074,,,,,,,,,,,,,,,,,,,,,,,,,,,,,,,,,,,,,,,,,,,,,,,,,,,,,,,,,,,,,,,
182efe1356b34ba9a73f6a64837cfad2,1746300486.120091,5,Hand Close,271,638,278,82,48,35,93,114,2.9948221230024665,6.873804839666326,2.502061476187834,0.21841726230695707,-0.06710193963130122,-0.24387110397213252,1.1833499646366012,1.583461024724182,0.886474609375,0.453369140625,0.0032958984375,-0.09222412109375,0.0,0.0,0.0,0.9999434947967529,0.05129581689834595,0.10329407453536987,-0.12238692864775658,0.963245689868927,0.03209865093231201,-0.01458391547203064,-0.3181646727025509,0.9688794016838074,,,,,,,,,,,,,,,,,,,,,,,,,,,,,,,,,,,,,,,,,,,,,,,,,,,,,,,,,,,,,,,
eab1e991c76649be8c772a5028cce70e,1746300486.149193,5,Hand Close,259,589,298,91,52,38,97,112,2.8158369252075524,6.243407016110321,2.784751911808454,0.375041653033038,-0.00016987832818051362,-0.2019734811676179,1.284158588651049,1.5370635500102172,0.88671875,0.45281982421875,0.00286865234375,-0.09246826171875,0.0,0.0,0.0,0.9999403953552246,0.05310520529747009,0.09850957989692688,-0.13186005223542452,0.9609126448631287,0.033479124307632446,-0.020252645015716553,-0.3449609400704503,0.9678751230239868,,,,,,,,,,,,,,,,,,,,,,,,,,,,,,,,,,,,,,,,,,,,,,,,,,,,,,,,,,,,,,,
300e44d46b474492a7344b424aca64d5,1746300486.165225,5,Hand Close,237,613,304,89,51,37,85,95,2.4876973959168764,6.5521732970357105,2.86955904249464,0.34023623287168664,-0.01690289365396069,-0.21593935543578943,0.9817327166077058,1.1426850149415166,0.88726806640625,0.45184326171875,0.00244140625,-0.092041015625,0.0,0.0,0.0,0.9999403953552246,0.05310520529747009,0.09850957989692688,-0.13186005223542452,0.9609126448631287,0.033479124307632446,-0.020252645015716553,-0.3449609400704503,0.9678751230239868,,,,,,,,,,,,,,,,,,,,,,,,,,,,,,,,,,,,,,,,,,,,,,,,,,,,,,,,,,,,,,,
3ca86325c5774c9885a1ac0c79e09e60,1746300486.180082,5,Hand Close,233,611,316,86,51,41,61,104,2.4280356633185716,6.526442773625261,3.039173303867012,0.28802810262965967,-0.01690289365396069,-0.16007585836310326,0.3768809725210192,1.3514736511543581,0.88848876953125,0.44970703125,0.001953125,-0.0908203125,0.0,0.0,0.0,0.9999400973320007,0.0523054301738739,0.09989520907402039,-0.13306448073126376,0.9602916240692139,0.032556623220443726,-0.02012917399406433,-0.3328549733851105,0.9666091799736023,,,,,,,,,,,,,,,,,,,,,,,,,,,,,,,,,,,,,,,,,,,,,,,,,,,,,,,,,,,,,,,
1f839d5a778147889c686867db2af28e,1746300486.217314,5,Hand Close,172,577,296,82,48,39,56,100,1.5181942411944247,6.089023875647626,2.7564828682463918,0.21841726230695707,-0.06710193963130122,-0.18800760689944634,0.2508701925029595,1.2586787017264287,0.89031982421875,0.446533203125,0.00250244140625,-0.0885009765625,0.0,0.0,0.0,0.9999400973320007,0.0523054301738739,0.09989520907402039,-0.13306448073126376,0.9602916240692139,0.032556623220443726,-0.02012917399406433,-0.3328549733851105,0.9666091799736023,,,,,,,,,,,,,,,,,,,,,,,,,,,,,,,,,,,,,,,,,,,,,,,,,,,,,,,,,,,,,,,
3b62c917e127400b893c75f86d36aada,1746300486.247451,5,Hand Close,163,528,322,92,53,38,53,96,1.383955342848239,5.4586260520916206,3.123980434553198,0.3924443631137136,0.016563136997599662,-0.2019734811676179,0.17526372449212368,1.165883752298499,0.89276123046875,0.442138671875,0.00506591796875,-0.08563232421875,0.0,0.0,0.0,0.9999376535415649,0.05093318223953247,0.1003057062625885,-0.14459875458851457,0.9578022956848145,0.033719420433044434,-0.022304832935333252,-0.3506117486394942,0.9648723006248474,,,,,,,,,,,,,,,,,,,,,,,,,,,,,,,,,,,,,,,,,,,,,,,,,,,,,,,,,,,,,,,
876f990d56fa4371af04cc1c86f23294,1746300486.278029,5,Hand Close,198,482,350,77,48,37,44,174,1.9059955030834055,4.86682401365129,3.5197470444220653,0.13140371190357877,-0.06710193963130122,-0.21593935543578943,-0.05155567954038375,2.9753852661431264,0.89593505859375,0.43634033203125,0.008544921875,-0.082275390625,0.0,0.0,0.0,0.9999313950538635,0.048851966857910156,0.09802410006523132,-0.11287372931838036,0.9527433514595032,0.032798171043395996,-0.017731159925460815,-0.3031805567443371,0.9610117673873901,,,,,,,,,,,,,,,,,,,,,,,,,,,,,,,,,,,,,,,,,,,,,,,,,,,,,,,,,,,,,,,
039d94fe62dc4ac3b90f4a155e3a7da0,1746300486.308284,5,Hand Close,201,445,345,74,55,39,42,188,1.9507418025321337,4.390809330557981,3.4490744355169105,0.07919558166155181,0.05002916764916002,-0.18800760689944634,-0.10195999154760763,3.30016758914088,0.8992919921875,0.4300537109375,0.0135498046875,-0.078125,0.0,0.0,0.0,0.9999313950538635,0.048851966857910156,0.09802410006523132,-0.11287372931838036,0.9527433514595032,0.032798171043395996,-0.017731159925460815,-0.3031805567443371,0.9610117673873901,,,,,,,,,,,,,,,,,,,,,,,,,,,,,,,,,,,,,,,,,,,,,,,,,,,,,,,,,,,,,,,
0238476c828d42999130fb760b2e032d,1746300486.337382,5,Hand Close,193,426,347,75,53,35,47,180,1.8314183373355244,4.146369358158713,3.4773434790789723,0.09659829174222746,0.016563136997599662,-0.24387110397213252,0.024050788470452063,3.114577690285021,0.9029541015625,0.4229736328125,0.02142333984375,-0.07257080078125,0.0,0.0,0.0,0.9999219179153442,0.04744535684585571,0.09847792983055115,-0.13553238287568092,0.9513317942619324,0.029297173023223877,-0.050155431032180786,-0.3242637403309345,0.9604973793029785,,,,,,,,,,,,,,,,,,,,,,,,,,,,,,,,,,,,,,,,,,,,,,,,,,,,,,,,,,,,,,,
5fcde832db2447d79b9e42747e84f269,1746300486.352912,5,Hand Close,192,362,360,84,54,35,46,179,1.8165029041859484,3.32299260902434,3.6610922622323754,0.25322268246830837,0.03329615232337984,-0.24387110397213252,-0.0011513675331598753,3.0913789529280384,0.90802001953125,0.41229248046875,0.031494140625,-0.06646728515625,0.0,0.0,0.0,0.9999219179153442,0.04744535684585571,0.09847792983055115,-0.13553238287568092,0.9513317942619324,0.029297173023223877,-0.050155431032180786,-0.3242637403309345,0.9604973793029785,,,,,,,,,,,,,,,,,,,,,,,,,,,,,,,,,,,,,,,,,,,,,,,,,,,,,,,,,,,,,,,
41c4214bcaf644b995fe4c2f7c86c9f8,1746300486.367839,5,Hand Close,187,362,328,74,46,50,52,178,1.7419257384380673,3.32299260902434,3.208787565239384,0.07919558166155181,-0.10056797028286157,-0.03438298994955939,0.15006156848851177,3.068180215571056,0.9144287109375,0.39776611328125,0.04364013671875,-0.06036376953125,0.0,0.0,0.0,0.9999145269393921,0.047480642795562744,0.09593695402145386,-0.13630553148686886,0.9485968947410583,0.03319329023361206,-0.059345394372940063,-0.3384504821151495,0.9593959450721741,,,,,,,,,,,,,,,,,,,,,,,,,,,,,,,,,,,,,,,,,,,,,,,,,,,,,,,,,,,,,,,
95c45145692640468ef0f2a0e966aafb,1746300486.389884,5,Hand Close,121,336,248,77,62,63,54,78,0.7575071505660392,2.988495804688501,2.078025822756904,0.13140371190357877,0.16716027492962124,0.14717337553667065,0.20046588049573563,0.7483064798728157,0.9278564453125,0.3621826171875,0.0733642578125,-0.04913330078125,0.0,0.0,0.0,0.9999145269393921,0.047480642795562744,0.09593695402145386,-0.13630553148686886,0.9485968947410583,0.03319329023361206,-0.059345394372940063,-0.3384504821151495,0.9593959450721741,,,,,,,,,,,,,,,,,,,,,,,,,,,,,,,,,,,,,,,,,,,,,,,,,,,,,,,,,,,,,,,
36ab4b7739a24a2f874d614d03126826,1746300486.404689,5,Hand Close,116,295,241,80,89,80,62,74,0.6829299848181584,2.4610200747742934,1.9790841702896873,0.18361184214560575,0.6189516887256861,0.3845932380955869,0.40208312852463113,0.6555115304448861,0.93621826171875,0.3369140625,0.08966064453125,-0.0438232421875,0.0,0.0,0.0,0.9999114274978638,0.04776495695114136,0.09794965386390686,-0.14551733247935772,0.9479477405548096,0.03147786855697632,-0.03213530778884888,-0.3519404511898756,0.9592412114143372,,,,,,,,,,,,,,,,,,,,,,,,,,,,,,,,,,,,,,,,,,,,,,,,,,,,,,,,,,,,,,,
e6b5a9bc1b3342e6bb252c94ccdbd754,1746300486.419733,5,Hand Close,112,350,226,72,97,88,88,76,0.6232682522198536,3.168609468561645,1.7670663435742224,0.044390161500200497,0.7528158113319274,0.4963202322409592,1.0573391846185416,0.7019090051588509,0.94598388671875,0.30419921875,0.1048583984375,-0.0382080078125,0.0,0.0,0.0,0.9999114274978638,0.04776495695114136,0.09794965386390686,-0.14551733247935772,0.9479477405548096,0.03147786855697632,-0.03213530778884888,-0.3519404511898756,0.9592412114143372,,,,,,,,,,,,,,,,,,,,,,,,,,,,,,,,,,,,,,,,,,,,,,,,,,,,,,,,,,,,,,,
01f9e5d3ecd949a5829fbac80e8714d9,1746300486.435518,5,Hand Close,139,368,213,71,100,87,101,88,1.0259849472584106,3.400184179255688,1.5833175604208196,0.026987451419524838,0.8030148573092679,0.48235435797278764,1.3849672126654968,0.9802938534426398,0.9561767578125,0.2666015625,0.11676025390625,-0.03070068359375,0.0,0.0,0.0,0.9999114274978638,0.04776495695114136,0.09794965386390686,-0.14551733247935772,0.9479477405548096,0.03147786855697632,-0.03213530778884888,-0.3519404511898756,0.9592412114143372,,,,,,,,,,,,,,,,,,,,,,,,,,,,,,,,,,,,,,,,,,,,,,,,,,,,,,,,,,,,,,,
7120c91348944c47822fcf8154c2957c,1746300486.450057,5,Hand Close,166,373,197,66,115,117,186,142,1.4287016422969676,3.4645104877818107,1.3571652119243236,-0.06002609898385344,1.0540100871959706,0.9013305860179338,3.5271504729725116,2.2330256707196896,0.96466064453125,0.22943115234375,0.1268310546875,-0.0242919921875,0.0,0.0,0.0,0.9999114274978638,0.04776495695114136,0.09794965386390686,-0.14551733247935772,0.9479477405548096,0.03147786855697632,-0.03213530778884888,-0.3519404511898756,0.9592412114143372,,,,,,,,,,,,,,,,,,,,,,,,,,,,,,,,,,,,,,,,,,,,,,,,,,,,,,,,,,,,,,,
80b71d43507d4877956e83f04fa32245,1746300486.480602,5,Hand Close,168,357,179,66,127,125,209,184,1.4585325085961198,3.2586663004982173,1.1027438198657658,-0.06002609898385344,1.2548062711053325,1.0130575801633062,4.106800061055586,3.2073726397129505,0.9700927734375,0.2003173828125,0.1351318359375,-0.02093505859375,0.0,0.0,0.0,0.9999141693115234,0.044121623039245605,0.11777767539024353,-0.08823059499263763,0.9509982466697693,0.002092212438583374,-0.007643908262252808,-0.23863790929317474,0.9626291990280151,,,,,,,,,,,,,,,,,,,,,,,,,,,,,,,,,,,,,,,,,,,,,,,,,,,,,,,,,,,,,,,
591536460888462e8afe798f8c3dac49,1746300486.510104,5,Hand Close,176,386,145,57,122,136,226,205,1.5778559737927293,3.6317588899497304,0.622170079310712,-0.21665048970993436,1.1711411944764316,1.166682197113193,4.53523671311699,3.6945461242095807,0.97381591796875,0.17547607421875,0.14288330078125,-0.02008056640625,0.0,0.0,0.0,0.9999064207077026,0.02524733543395996,0.11592516303062439,-0.12888450920581818,0.9553641080856323,-0.08533450961112976,-0.020607411861419678,-0.23912590742111206,0.9660089612007141,,,,,,,,,,,,,,,,,,,,,,,,,,,,,,,,,,,,,,,,,,,,,,,,,,,,,,,,,,,,,,,
501da258ae894657a537b7c6d9fed1b2,1746300486.532354,5,Hand Close,179,355,141,57,136,157,310,227,1.622602273241458,3.2329357770877682,0.5656319921865881,-0.21665048970993436,1.4054034090373542,1.4599655567447956,6.652217817420392,4.204918346063193,0.9775390625,0.146728515625,0.1502685546875,-0.0172119140625,0.0,0.0,0.0,0.9999064207077026,0.02524733543395996,0.11592516303062439,-0.12888450920581818,0.9553641080856323,-0.08533450961112976,-0.020607411861419678,-0.23912590742111206,0.9660089612007141,,,,,,,,,,,,,,,,,,,,,,,,,,,,,,,,,,,,,,,,,,,,,,,,,,,,,,,,,,,,,,,
8fd3a1aebcee46878f6adcceecb75b4a,1746300486.562321,5,Hand Close,170,332,137,57,139,163,328,238,1.4883633748952723,2.9370347578676026,0.5090939050624641,-0.21665048970993436,1.4556024550146947,1.5437608023538247,7.105856625485407,4.46010445699,0.979248046875,0.1253662109375,0.15838623046875,-0.01226806640625,0.0,0.0,0.0,0.9998896718025208,0.020842373371124268,0.11000585556030273,-0.13036120682954788,0.9591072797775269,-0.08929884433746338,-0.025831490755081177,-0.2606915459036827,0.9688103795051575,,,,,,,,,,,,,,,,,,,,,,,,,,,,,,,,,,,,,,,,,,,,,,,,,,,,,,,,,,,,,,,
04221e52f46742c7b7e0faf66536cb47,1746300486.592895,5,Hand Close,139,334,145,54,166,171,376,242,1.0259849472584106,2.962765281278052,0.622170079310712,-0.2688586199519613,1.9073938688107595,1.655487796499197,8.31556011365878,4.55289940641793,0.9794921875,0.1136474609375,0.1661376953125,-0.00738525390625,0.0,0.0,0.0,0.999894380569458,0.04408562183380127,0.1125531792640686,-0.14940600097179413,0.9628854990005493,-0.0835840106010437,-0.07773551344871521,-0.3036686033010483,0.9716569185256958,0.00150299072265625,0.43481338024139404,0.06579168154154047,0.018537580966949463,0.43716537952423096,0.06280530127696693,0.031375885009765625,0.453300416469574,0.059584475588053465,0.04115062952041626,0.4679620862007141,0.056170239113271236,0.051268935203552246,0.4776446223258972,0.05244458559900522,0.03544491529464722,0.50114506483078,0.06107988813892007,0.04481405019760132,0.5375074744224548,0.05558608938008547,0.049019694328308105,0.5608537793159485,0.05125016625970602,0.05115044116973877,0.5795696973800659,0.048586418852210045,0.026278316974639893,0.5131896734237671,0.05862304801121354,0.03500181436538696,0.5551964640617371,0.05411979928612709,0.0394325852394104,0.5814909338951111,0.0503317266702652,0.04210066795349121,0.6021843552589417,0.047735145315527916,0.015543758869171143,0.5190490484237671,0.055685474537312984,0.022795498371124268,0.5604397058486938,0.051605778746306896,0.026336729526519775,0.5867926478385925,0.04896588809788227,0.028489530086517334,0.6077577471733093,0.04719874449074268,0.004285752773284912,0.5191007256507874,0.052453503012657166,0.007771134376525879,0.5537716150283813,0.049158090725541115,0.010156363248825073,0.5769779086112976,0.04826080985367298,0.012547165155410767,0.5967279076576233,0.04791339114308357
c8140451b1cb4f26b0f6e36ca6b6d4f1,1746300486.623354,5,Hand Close,137,345,170,52,170,180,403,243,0.9961540809592582,3.1042831600355223,0.9755331238364868,-0.30366404011331266,1.9743259301138802,1.7811806649127409,8.996018325756303,4.576098143774912,0.9783935546875,0.10565185546875,0.17755126953125,-0.002197265625,0.0,0.0,0.0,0.999894380569458,0.04408562183380127,0.1125531792640686,-0.14940600097179413,0.9628854990005493,-0.0835840106010437,-0.07773551344871521,-0.3036686033010483,0.9716569185256958,0.00150299072265625,0.43481338024139404,0.06579168154154047,0.018537580966949463,0.43716537952423096,0.06280530127696693,0.031375885009765625,0.453300416469574,0.059584475588053465,0.04115062952041626,0.4679620862007141,0.056170239113271236,0.051268935203552246,0.4776446223258972,0.05244458559900522,0.03544491529464722,0.50114506483078,0.06107988813892007,0.04481405019760132,0.5375074744224548,0.05558608938008547,0.049019694328308105,0.5608537793159485,0.05125016625970602,0.05115044116973877,0.5795696973800659,0.048586418852210045,0.026278316974639893,0.5131896734237671,0.05862304801121354,0.03500181436538696,0.5551964640617371,0.05411979928612709,0.0394325852394104,0.5814909338951111,0.0503317266702652,0.04210066795349121,0.6021843552589417,0.047735145315527916,0.015543758869171143,0.5190490484237671,0.055685474537312984,0.022795498371124268,0.5604397058486938,0.051605778746306896,0.026336729526519775,0.5867926478385925,0.04896588809788227,0.028489530086517334,0.6077577471733093,0.04719874449074268,0.004285752773284912,0.5191007256507874,0.052453503012657166,0.007771134376525879,0.5537716150283813,0.049158090725541115,0.010156363248825073,0.5769779086112976,0.04826080985367298,0.012547165155410767,0.5967279076576233,0.04791339114308357
8f8260e11fd748ff9363bd431efeac81,1746300486.652485,5,Hand Close,119,306,205,56,173,173,426,279,0.7276762842668869,2.6025379535317636,1.4702413861725716,-0.23405319979061,2.0245249760912207,1.6834195450355403,9.575667913839377,5.411252688626279,0.976806640625,0.09442138671875,0.19183349609375,0.002197265625,0.0,0.0,0.0,0.999897301197052,0.050538569688797,0.1183972954750061,-0.1637876033782959,0.966157853603363,-0.059322744607925415,-0.06275960803031921,-0.3144150376319885,0.9740369319915771,,,,,,,,,,,,,,,,,,,,,,,,,,,,,,,,,,,,,,,,,,,,,,,,,,,,,,,,,,,,,,,
4a7b36ca4ba74e17a4b6f3cb5d9eb7a5,1746300486.682033,5,Hand Close,124,395,240,60,170,166,369,284,0.8022534500147678,3.7475462452967516,1.9649496485086564,-0.1644423594679074,1.9743259301138802,1.5856584251583394,8.139145021633496,5.527246375411191,0.97552490234375,0.07574462890625,0.20611572265625,0.0084228515625,0.0,0.0,0.0,0.999897301197052,0.050538569688797,0.1183972954750061,-0.1637876033782959,0.966157853603363,-0.059322744607925415,-0.06275960803031921,-0.3144150376319885,0.9740369319915771,,,,,,,,,,,,,,,,,,,,,,,,,,,,,,,,,,,,,,,,,,,,,,,,,,,,,,,,,,,,,,,
d526f39d391d47d3823d4e33cff6c61d,1746300486.720119,5,Hand Close,125,377,237,61,175,159,332,323,0.817168883164344,3.515971534602709,1.9225460831655634,-0.14703964938723174,2.057991006742781,1.4878973052811386,7.206665249499855,6.431997132333505,0.966064453125,0.0384521484375,0.25396728515625,0.0262451171875,0.0,0.0,0.0,0.9999011158943176,0.051453202962875366,0.12178435921669006,-0.17086409404873848,0.9691194295883179,-0.04722076654434204,-0.04114481806755066,-0.3515465594828129,0.9762318134307861,,,,,,,,,,,,,,,,,,,,,,,,,,,,,,,,,,,,,,,,,,,,,,,,,,,,,,,,,,,,,,,
002ebde4c9db4e3da81184cf8fa271fd,1746300486.757531,5,Hand Close,123,351,152,51,138,119,190,238,0.7873380168651916,3.1814747302668698,0.721111731777929,-0.3210667501939883,1.4388694396889146,0.9292623345542769,3.6279590969869595,4.46010445699,0.955078125,0.0208740234375,0.29351806640625,0.034423828125,0.0,0.0,0.0,0.9999012351036072,0.030512362718582153,0.10308665037155151,-0.15132635831832886,0.9719878435134888,-0.09499457478523254,-0.1106829047203064,-0.2769187390804291,0.9785304069519043,,,,,,,,,,,,,,,,,,,,,,,,,,,,,,,,,,,,,,,,,,,,,,,,,,,,,,,,,,,,,,,
eddb602f67ee4bb18a96e87232f51b59,1746300486.772535,5,Hand Close,100,316,167,50,102,93,153,128,0.44428305442493937,2.7311905705840096,0.9331295584933939,-0.33846946027466396,0.8364808879608283,0.5661496035818169,2.6954793248533178,1.9082433477219358,0.952392578125,0.01812744140625,0.302001953125,0.037109375,0.0,0.0,0.0,0.9999012351036072,0.030512362718582153,0.10308665037155151,-0.15132635831832886,0.9719878435134888,-0.09499457478523254,-0.1106829047203064,-0.2769187390804291,0.9785304069519043,,,,,,,,,,,,,,,,,,,,,,,,,,,,,,,,,,,,,,,,,,,,,,,,,,,,,,,,,,,,,,,
93701a6a87bd4354bd46f9a7cbf97e2a,1746300486.787142,5,Hand Close,99,310,160,48,108,83,82,103,0.42936762127536315,2.653999000352662,0.8341879060261769,-0.37327488043601526,0.9368789799155094,0.42649086090010146,0.90612624859687,1.3282749137973757,0.94970703125,0.0164794921875,0.31005859375,0.04010009765625,0.0,0.0,0.0,0.9999034404754639,0.03512674570083618,0.12570539116859436,-0.16205855458974838,0.9745428562164307,-0.0895528793334961,-0.04753303527832031,-0.34199797362089157,0.9805888533592224,,,,,,,,,,,,,,,,,,,,,,,,,,,,,,,,,,,,,,,,,,,,,,,,,,,,,,,,,,,,,,,
aa62e73d2840420d930ab868025b3bed,1746300486.802702,5,Hand Close,91,298,172,50,107,83,87,104,0.3100441560787537,2.499615859889967,1.0038021673985489,-0.33846946027466396,0.9201459645897292,0.42649086090010146,1.0321370286149296,1.3514736511543581,0.9473876953125,0.01849365234375,0.31646728515625,0.04327392578125,0.0,0.0,0.0,0.9999034404754639,0.03512674570083618,0.12570539116859436,-0.16205855458974838,0.9745428562164307,-0.0895528793334961,-0.04753303527832031,-0.34199797362089157,0.9805888533592224,,,,,,,,,,,,,,,,,,,,,,,,,,,,,,,,,,,,,,,,,,,,,,,,,,,,,,,,,,,,,,,
3bb0dd5ac3714710bff3448ab5b46cfc,1746300486.817779,5,Hand Close,80,267,161,43,103,84,238,144,0.14597439143341567,2.100792747028005,0.8483224278072079,-0.4602884308393935,0.8532139032866085,0.44045673516827305,4.8376625851603325,2.2794231454336544,0.94598388671875,0.0255126953125,0.31976318359375,0.046630859375,0.0,0.0,0.0,0.9999034404754639,0.03512674570083618,0.12570539116859436,-0.16205855458974838,0.9745428562164307,-0.0895528793334961,-0.04753303527832031,-0.34199797362089157,0.9805888533592224,,,,,,,,,,,,,,,,,,,,,,,,,,,,,,,,,,,,,,,,,,,,,,,,,,,,,,,,,,,,,,,
0d043884ba8a46a9af169874f607eab7,1746300486.83177,5,Hand Close,72,258,187,47,102,76,245,142,0.026650926236806205,1.9850053916809838,1.2158199941140138,-0.39067759051669093,0.8364808879608283,0.3287297410229007,5.014077677185616,2.2330256707196896,0.94512939453125,0.0352783203125,0.32080078125,0.04962158203125,0.0,0.0,0.0,0.9999086260795593,0.03487500548362732,0.20650264620780945,-0.1462940275669098,0.9767556190490723,-0.053135067224502563,0.0039042532444000244,-0.33441162109375,0.9824015498161316,,,,,,,,,,,,,,,,,,,,,,,,,,,,,,,,,,,,,,,,,,,,,,,,,,,,,,,,,,,,,,,
c993f8b999644093a41e1496bc4b684e,1746300486.847345,5,Hand Close,69,272,188,50,123,88,257,140,-0.01809537321192235,2.1651190555541278,1.2299545158950447,-0.33846946027466396,1.187874209802212,0.4963202322409592,5.316503549228959,2.186628196005725,0.94488525390625,0.04266357421875,0.32025146484375,0.0521240234375,0.0,0.0,0.0,0.9999086260795593,0.03487500548362732,0.20650264620780945,-0.1462940275669098,0.9767556190490723,-0.053135067224502563,0.0039042532444000244,-0.33441162109375,0.9824015498161316,,,,,,,,,,,,,,,,,,,,,,,,,,,,,,,,,,,,,,,,,,,,,,,,,,,,,,,,,,,,,,,
1ea587b89425462f962ec66111f5f6f0,1746300486.86289,5,Hand Close,82,327,205,57,139,93,260,138,0.17580525773256805,2.87270844934148,1.4702413861725716,-0.21665048970993436,1.4556024550146947,0.5661496035818169,5.392110017239795,2.14023072129176,0.945068359375,0.049560546875,0.3182373046875,0.054931640625,0.0,0.0,0.0,0.9999086260795593,0.03487500548362732,0.20650264620780945,-0.1462940275669098,0.9767556190490723,-0.053135067224502563,0.0039042532444000244,-0.33441162109375,0.9824015498161316,,,,,,,,,,,,,,,,,,,,,,,,,,,,,,,,,,,,,,,,,,,,,,,,,,,,,,,,,,,,,,,
14f69ac7dac04470bb8d448fcebc7ee4,1746300486.877455,5,Hand Close,90,327,200,62,138,90,259,129,0.2951287229291775,2.87270844934148,1.3995687772674166,-0.12963693930655606,1.4388694396889146,0.5242519807773023,5.366907861236183,1.9314420850789182,0.94537353515625,0.0582275390625,0.31494140625,0.05987548828125,0.0,0.0,0.0,0.9999135136604309,0.037554144859313965,0.21268978714942932,-0.14360615611076355,0.9787326455116272,-0.038844138383865356,0.017096668481826782,-0.3347470760345459,0.9840266108512878,,,,,,,,,,,,,,,,,,,,,,,,,,,,,,,,,,,,,,,,,,,,,,,,,,,,,,,,,,,,,,,
29de2cca87d94d21bb28eef526fd01ee,1746300486.908055,5,Hand Close,97,378,199,60,146,90,140,76,0.39953675497621083,3.5288367963079335,1.3854342554863857,-0.1644423594679074,1.572733562295156,0.5242519807773023,2.3678512968063625,0.7019090051588509,0.94525146484375,0.06781005859375,0.31201171875,0.06689453125,0.0,0.0,0.0,0.9999135136604309,0.037554144859313965,0.21268978714942932,-0.14360615611076355,0.9787326455116272,-0.038844138383865356,0.017096668481826782,-0.3347470760345459,0.9840266108512878,,,,,,,,,,,,,,,,,,,,,,,,,,,,,,,,,,,,,,,,,,,,,,,,,,,,,,,,,,,,,,,
d0ccd9586890471eb7615172e7ac0b60,1746300486.960256,5,Hand Close,98,373,184,64,149,89,124,68,0.414452188125787,3.4645104877818107,1.1734164287709208,-0.09483151914520475,1.6229326082724964,0.5102861065091308,1.9646168007485716,0.5163191063029916,0.94488525390625,0.07843017578125,0.3089599609375,0.0738525390625,0.0,0.0,0.0,0.9999183416366577,0.034833431243896484,0.2367880642414093,-0.11011072993278503,0.9804558157920837,-0.03409230709075928,0.039601415395736694,-0.28085681796073914,0.9855079054832458,,,,,,,,,,,,,,,,,,,,,,,,,,,,,,,,,,,,,,,,,,,,,,,,,,,,,,,,,,,,,,,
ed0c9d01aebc4653888657f5d5aa8938,1746300487.005702,5,Hand Close,101,366,167,66,129,72,95,63,0.45919848757451553,3.3744536558452385,0.9331295584933939,-0.06002609898385344,1.288272301756893,0.2728662439502145,1.2337542766438252,0.40032541951807965,0.94439697265625,0.0885009765625,0.30596923828125,0.08087158203125,0.0,0.0,0.0,0.9999240040779114,0.03760969638824463,0.2378624677658081,-0.08679664134979248,0.9820674061775208,-0.032239675521850586,0.04334327578544617,-0.20618155598640442,0.9868397116661072,,,,,,,,,,,,,,,,,,,,,,,,,,,,,,,,,,,,,,,,,,,,,,,,,,,,,,,,,,,,,,,
940fec1974214207bebe0bc2d0ebd67d,1746300487.028162,5,Hand Close,96,317,153,67,101,58,79,63,0.3846213218266346,2.744055832289234,0.73524625355896,-0.04262338890317779,0.8197478726350481,0.07734400419581294,0.8305197805860342,0.40032541951807965,0.9434814453125,0.09783935546875,0.30419921875,0.08782958984375,0.0,0.0,0.0,0.999928891658783,0.038031160831451416,0.23734232783317566,-0.08135131001472473,0.9834975004196167,-0.03285890817642212,0.041462093591690063,-0.2035837471485138,0.9880333542823792,,,,,,,,,,,,,,,,,,,,,,,,,,,,,,,,,,,,,,,,,,,,,,,,,,,,,,,,,,,,,,,
7974282caac64155850e4d8c35e9d4b2,1746300487.043055,5,Hand Close,90,290,147,65,98,57,75,64,0.2951287229291775,2.39669376624817,0.6504391228727741,-0.0774288090645291,0.7695488266577076,0.0633781299276414,0.7297111565715864,0.42352415687506206,0.9423828125,0.1072998046875,0.3017578125,0.09619140625,0.0,0.0,0.0,0.999928891658783,0.038031160831451416,0.23734232783317566,-0.08135131001472473,0.9834975004196167,-0.03285890817642212,0.041462093591690063,-0.2035837471485138,0.9880333542823792,,,,,,,,,,,,,,,,,,,,,,,,,,,,,,,,,,,,,,,,,,,,,,,,,,,,,,,,,,,,,,,
80cb0016d90b47bd852a714b7184affb,1746300487.057091,5,Hand Close,93,297,148,66,85,55,59,58,0.33987502237790607,2.4867505981847424,0.664573644653805,-0.06002609898385344,0.5520196274225653,0.03544638139129832,0.3264766605137953,0.28433173273316764,0.941162109375,0.11602783203125,0.29864501953125,0.1070556640625,0.0,0.0,0.0,0.999928891658783,0.038031160831451416,0.23734232783317566,-0.08135131001472473,0.9834975004196167,-0.03285890817642212,0.041462093591690063,-0.2035837471485138,0.9880333542823792,,,,,,,,,,,,,,,,,,,,,,,,,,,,,,,,,,,,,,,,,,,,,,,,,,,,,,,,,,,,,,,
b91231f1ec954561b861be8179ec4e52,1746300487.072134,5,Hand Close,90,320,143,60,65,49,48,53,0.2951287229291775,2.7826516174049076,0.59390103574865,-0.1644423594679074,0.21735932090696178,-0.048348864217730936,0.049252944474064,0.1683380459482556,0.9383544921875,0.12542724609375,0.29473876953125,0.1295166015625,0.0,0.0,0.0,0.9999327659606934,0.03871852159500122,0.23492446541786194,-0.09110906720161438,0.984904408454895,-0.03513914346694946,0.045485347509384155,-0.22987516224384308,0.9891590476036072,,,,,,,,,,,,,,,,,,,,,,,,,,,,,,,,,,,,,,,,,,,,,,,,,,,,,,,,,,,,,,,
4f39b83bed4a4d69b77eec5754bb9324,1746300487.087014,5,Hand Close,81,367,175,58,60,48,53,46,0.16088982458299186,3.387318917550463,1.0462057327416419,-0.1992477796292587,0.1336942442780609,-0.06231473848590247,0.17526372449212368,0.005946884449378762,0.93695068359375,0.12744140625,0.29437255859375,0.13818359375,0.0,0.0,0.0,0.9999327659606934,0.03871852159500122,0.23492446541786194,-0.09110906720161438,0.984904408454895,-0.03513914346694946,0.045485347509384155,-0.22987516224384308,0.9891590476036072,,,,,,,,,,,,,,,,,,,,,,,,,,,,,,,,,,,,,,,,,,,,,,,,,,,,,,,,,,,,,,,
a889033ed14c4dcfbb4ffae8caded014,1746300487.089007,5,Hand Close,79,364,175,53,45,35,44,31,0.13105895828383948,3.3487231324347895,1.0462057327416419,-0.286261330032637,-0.11730098560864174,-0.24387110397213252,-0.05155567954038375,-0.3420341759053573,0.93536376953125,0.1319580078125,0.2938232421875,0.14593505859375,0.0,0.0,0.0,0.9999327659606934,0.03871852159500122,0.23492446541786194,-0.09110906720161438,0.984904408454895,-0.03513914346694946,0.045485347509384155,-0.22987516224384308,0.9891590476036072,,,,,,,,,,,,,,,,,,,,,,,,,,,,,,,,,,,,,,,,,,,,,,,,,,,,,,,,,,,,,,,
f612a66ce40749d39966db3808756a6e,1746300487.102838,5,Hand Close,67,291,161,54,46,35,42,41,-0.04792623951107472,2.409559027953395,0.8483224278072079,-0.2688586199519613,-0.10056797028286157,-0.24387110397213252,-0.10195999154760763,-0.11004680233553325,0.933349609375,0.138671875,0.29290771484375,0.154296875,0.0,0.0,0.0,0.9999327659606934,0.03871852159500122,0.23492446541786194,-0.09110906720161438,0.984904408454895,-0.03513914346694946,0.045485347509384155,-0.22987516224384308,0.9891590476036072,,,,,,,,,,,,,,,,,,,,,,,,,,,,,,,,,,,,,,,,,,,,,,,,,,,,,,,,,,,,,,,
12abddec1edf4590a7e16b8d17c56ffe,1746300487.117067,5,Hand Close,65,270,163,54,59,38,39,43,-0.07775710581022709,2.1393885321436787,0.8765914713692698,-0.2688586199519613,0.11696122895228073,-0.2019734811676179,-0.17756645955844344,-0.06364932762156846,0.9312744140625,0.14544677734375,0.2913818359375,0.1629638671875,0.0,0.0,0.0,0.9999364614486694,0.04132562875747681,0.22979438304901123,-0.0851261168718338,0.9862306118011475,-0.032946884632110596,0.047624170780181885,-0.22751353681087494,0.9901618957519531,,,,,,,,,,,,,,,,,,,,,,,,,,,,,,,,,,,,,,,,,,,,,,,,,,,,,,,,,,,,,,,
c6b214cfab814aaabc3b104b6beb6995,1746300487.140099,5,Hand Close,64,252,169,55,69,40,41,46,-0.09267253895980328,1.9078138214496363,0.9613986020554558,-0.2514559098712857,0.2842913822100825,-0.17404173263127481,-0.12716214755121957,0.005946884449378762,0.929931640625,0.1494140625,0.28961181640625,0.170166015625,0.0,0.0,0.0,0.9999364614486694,0.04132562875747681,0.22979438304901123,-0.0851261168718338,0.9862306118011475,-0.032946884632110596,0.047624170780181885,-0.22751353681087494,0.9901618957519531,,,,,,,,,,,,,,,,,,,,,,,,,,,,,,,,,,,,,,,,,,,,,,,,,,,,,,,,,,,,,,,
2dc57bec0f404f3fb2610edebf37f6b0,1746300487.16222,5,Hand Close,77,292,140,50,70,41,38,47,0.10122809198468713,2.4224242896586197,0.5514974704055571,-0.33846946027466396,0.3010243975358627,-0.16007585836310326,-0.2027686155620554,0.029145621806361165,0.92919921875,0.1514892578125,0.287109375,0.17657470703125,0.0,0.0,0.0,0.9999415874481201,0.055635035037994385,0.22371837496757507,-0.09061530232429504,0.9874424934387207,-0.030819416046142578,0.07770460844039917,-0.2460864782333374,0.9910639524459839,,,,,,,,,,,,,,,,,,,,,,,,,,,,,,,,,,,,,,,,,,,,,,,,,,,,,,,,,,,,,,,
df1f8c592f5d4ae79d1ddd4a04f5f5bb,1746300487.177692,5,Hand Close,78,302,126,56,88,47,37,53,0.1161435251342633,2.551076906710865,0.3536141654711232,-0.23405319979061,0.6022186733999059,-0.07628061275407402,-0.22797077156566734,0.1683380459482556,0.9287109375,0.15142822265625,0.28460693359375,0.182861328125,0.0,0.0,0.0,0.9999415874481201,0.055635035037994385,0.22371837496757507,-0.09061530232429504,0.9874424934387207,-0.030819416046142578,0.07770460844039917,-0.2460864782333374,0.9910639524459839,,,,,,,,,,,,,,,,,,,,,,,,,,,,,,,,,,,,,,,,,,,,,,,,,,,,,,,,,,,,,,,
54f6a78b1f344f1490f8e8a1054531ef,1746300487.199834,5,Hand Close,87,298,134,62,102,54,39,48,0.250382423480449,2.499615859889967,0.46669033971937113,-0.12963693930655606,0.8364808879608283,0.021480507123126776,-0.17756645955844344,0.05234435916334357,0.92840576171875,0.15020751953125,0.282470703125,0.18853759765625,0.0,0.0,0.0,0.999946653842926,0.06274515390396118,0.21667125821113586,-0.10645264387130737,0.9885867238044739,-0.02811586856842041,0.08245232701301575,-0.2792986035346985,0.9918993711471558,,,,,,,,,,,,,,,,,,,,,,,,,,,,,,,,,,,,,,,,,,,,,,,,,,,,,,,,,,,,,,,
50f8ee76c0b840d2b8940056f483f299,1746300487.226372,5,Hand Close,89,300,144,60,100,56,62,47,0.28021328977960136,2.525346383300416,0.6080355575296811,-0.1644423594679074,0.8030148573092679,0.04941225565946986,0.40208312852463113,0.029145621806361165,0.92822265625,0.14959716796875,0.27978515625,0.19384765625,0.0,0.0,0.0,0.999946653842926,0.06274515390396118,0.21667125821113586,-0.10645264387130737,0.9885867238044739,-0.02811586856842041,0.08245232701301575,-0.2792986035346985,0.9918993711471558,,,,,,,,,,,,,,,,,,,,,,,,,,,,,,,,,,,,,,,,,,,,,,,,,,,,,,,,,,,,,,,
461d30fa3a3647b68b64e59709504e99,1746300487.23817,5,Hand Close,87,300,131,55,97,56,61,45,0.250382423480449,2.525346383300416,0.42428677437627815,-0.2514559098712857,0.7528158113319274,0.04941225565946986,0.3768809725210192,-0.017251852907603643,0.92822265625,0.14874267578125,0.27685546875,0.19891357421875,0.0,0.0,0.0,0.999946653842926,0.06274515390396118,0.21667125821113586,-0.10645264387130737,0.9885867238044739,-0.02811586856842041,0.08245232701301575,-0.2792986035346985,0.9918993711471558,,,,,,,,,,,,,,,,,,,,,,,,,,,,,,,,,,,,,,,,,,,,,,,,,,,,,,,,,,,,,,,
706d458d68f34fdab652631cd2afd4e6,1746300487.259753,5,Hand Close,79,243,133,66,103,57,59,46,0.13105895828383948,1.792026466102615,0.4525558179383401,-0.06002609898385344,0.8532139032866085,0.0633781299276414,0.3264766605137953,0.005946884449378762,0.92852783203125,0.1478271484375,0.27362060546875,0.2025146484375,0.0,0.0,0.0,0.9999516010284424,0.06761890649795532,0.21425861120224,-0.12267192453145981,0.9896330833435059,-0.02753269672393799,0.089385986328125,-0.31507184356451035,0.9926729798316956,,,,,,,,,,,,,,,,,,,,,,,,,,,,,,,,,,,,,,,,,,,,,,,,,,,,,,,,,,,,,,,
0c72a61bfdbb48df81529e0c03402010,1746300487.282278,5,Hand Close,78,229,142,69,100,71,63,41,0.1161435251342633,1.6119128022294709,0.579766513967619,-0.007817968741826475,0.8030148573092679,0.258900369682043,0.4272852845282431,-0.11004680233553325,0.9290771484375,0.14715576171875,0.26971435546875,0.20574951171875,0.0,0.0,0.0,0.9999516010284424,0.06761890649795532,0.21425861120224,-0.12267192453145981,0.9896330833435059,-0.02753269672393799,0.089385986328125,-0.31507184356451035,0.9926729798316956,,,,,,,,,,,,,,,,,,,,,,,,,,,,,,,,,,,,,,,,,,,,,,,,,,,,,,,,,,,,,,,
90a131d29001466cb0dd5092131f0fd1,1746300487.29787,5,Hand Close,61,220,179,68,97,76,65,46,-0.13741883840853183,1.4961254468824496,1.1027438198657658,-0.025220678822502132,0.7528158113319274,0.3287297410229007,0.47768959653546694,0.005946884449378762,0.92987060546875,0.1444091796875,0.26568603515625,0.20916748046875,0.0,0.0,0.0,0.9999563097953796,0.06997489929199219,0.2140461802482605,-0.12239649146795273,0.9906340837478638,-0.02592027187347412,0.10385507345199585,-0.3436901196837425,0.9933938980102539,,,,,,,,,,,,,,,,,,,,,,,,,,,,,,,,,,,,,,,,,,,,,,,,,,,,,,,,,,,,,,,
581483b8beb64e828219a91ca92b5fac,1746300487.320576,5,Hand Close,61,233,178,73,99,75,44,44,-0.13741883840853183,1.6633738490503691,1.0886092980847348,0.06179287158087615,0.7862818419834878,0.31476386675472917,-0.05155567954038375,-0.04045059026458605,0.93084716796875,0.1402587890625,0.26177978515625,0.2127685546875,0.0,0.0,0.0,0.9999563097953796,0.06997489929199219,0.2140461802482605,-0.12239649146795273,0.9906340837478638,-0.02592027187347412,0.10385507345199585,-0.3436901196837425,0.9933938980102539,,,,,,,,,,,,,,,,,,,,,,,,,,,,,,,,,,,,,,,,,,,,,,,,,,,,,,,,,,,,,,,
a054174e6d4545ddbdd18e11730f44dd,1746300487.342372,5,Hand Close,62,265,195,79,100,79,43,43,-0.12250340525895564,2.075062223617556,1.3288961683622618,0.1662091320649301,0.8030148573092679,0.37062736382741535,-0.07675783554399569,-0.06364932762156846,0.93157958984375,0.135986328125,0.25775146484375,0.2171630859375,0.0,0.0,0.0,0.9999606013298035,0.0695950984954834,0.21265798807144165,-0.1350160837173462,0.9915493726730347,-0.028392910957336426,0.11150044202804565,-0.34802211821079254,0.9940467476844788,,,,,,,,,,,,,,,,,,,,,,,,,,,,,,,,,,,,,,,,,,,,,,,,,,,,,,,,,,,,,,,
202e825477a84862917d22ce352fc707,1746300487.357476,5,Hand Close,55,244,186,68,91,79,73,42,-0.22691143730598892,1.8048917278078396,1.2016854723329826,-0.025220678822502132,0.6524177193772464,0.37062736382741535,0.6793068445643625,-0.08684806497855085,0.93182373046875,0.1317138671875,0.25421142578125,0.22271728515625,0.0,0.0,0.0,0.9999606013298035,0.0695950984954834,0.21265798807144165,-0.1350160837173462,0.9915493726730347,-0.028392910957336426,0.11150044202804565,-0.34802211821079254,0.9940467476844788,,,,,,,,,,,,,,,,,,,,,,,,,,,,,,,,,,,,,,,,,,,,,,,,,,,,,,,,,,,,,,,
f030407e5dfa470caefc73290b6e7da6,1746300487.380502,5,Hand Close,59,271,185,62,77,62,72,43,-0.1672497047076842,2.1522537938489035,1.1875509505519517,-0.12963693930655606,0.4181555048163239,0.13320750126849912,0.6541046885607505,-0.06364932762156846,0.93194580078125,0.12841796875,0.25201416015625,0.22674560546875,0.0,0.0,0.0,0.9999606013298035,0.0695950984954834,0.21265798807144165,-0.1350160837173462,0.9915493726730347,-0.028392910957336426,0.11150044202804565,-0.34802211821079254,0.9940467476844788,,,,,,,,,,,,,,,,,,,,,,,,,,,,,,,,,,,,,,,,,,,,,,,,,,,,,,,,,,,,,,,
78d631dabc5645349dba54816376e096,1746300487.40232,5,Hand Close,75,265,142,61,58,47,70,35,0.07139722568553476,2.075062223617556,0.579766513967619,-0.14703964938723174,0.10022821362650054,-0.07628061275407402,0.6037003765535267,-0.2492392264774277,0.93206787109375,0.12713623046875,0.2503662109375,0.22882080078125,0.0,0.0,0.0,0.9999644160270691,0.06765860319137573,0.2134600281715393,-0.12888319790363312,0.9923696517944336,-0.030324429273605347,0.11341583728790283,-0.3415743261575699,0.9946325421333313,,,,,,,,,,,,,,,,,,,,,,,,,,,,,,,,,,,,,,,,,,,,,,,,,,,,,,,,,,,,,,,
e466368829e24b6aa8d54003d244403a,1746300487.417864,5,Hand Close,79,255,137,70,43,45,71,38,0.13105895828383948,1.94640960656531,0.5090939050624641,0.009584741338849182,-0.1507670162602021,-0.1042123612904171,0.6289025325571386,-0.17964301440648048,0.93212890625,0.12738037109375,0.24822998046875,0.23052978515625,0.0,0.0,0.0,0.9999644160270691,0.06765860319137573,0.2134600281715393,-0.12888319790363312,0.9923696517944336,-0.030324429273605347,0.11341583728790283,-0.3415743261575699,0.9946325421333313,,,,,,,,,,,,,,,,,,,,,,,,,,,,,,,,,,,,,,,,,,,,,,,,,,,,,,,,,,,,,,,
6687219054d5435390b819800c2904f8,1746300487.440026,5,Hand Close,85,229,129,69,30,34,71,50,0.2205515571812966,1.6119128022294709,0.39601773081421615,-0.007817968741826475,-0.3682962154953444,-0.25783697824030405,0.6289025325571386,0.09874183387730838,0.93280029296875,0.12408447265625,0.2462158203125,0.23187255859375,0.0,0.0,0.0,0.9999678134918213,0.06427645683288574,0.21534094214439392,-0.1490541398525238,0.9930985569953918,-0.033760666847229004,0.12005576491355896,-0.38606831431388855,0.9951521754264832,,,,,,,,,,,,,,,,,,,,,,,,,,,,,,,,,,,,,,,,,,,,,,,,,,,,,,,,,,,,,,,
ee2aa273b2d74196ada47e6d1f10678b,1746300487.463312,5,Hand Close,97,207,136,83,30,34,41,59,0.39953675497621083,1.32887704471453,0.4949593832814331,0.23581997238763272,-0.3682962154953444,-0.25783697824030405,-0.12716214755121957,0.30753047009015,0.9342041015625,0.1165771484375,0.244384765625,0.23211669921875,0.0,0.0,0.0,0.9999678134918213,0.06427645683288574,0.21534094214439392,-0.1490541398525238,0.9930985569953918,-0.033760666847229004,0.12005576491355896,-0.38606831431388855,0.9951521754264832,,,,,,,,,,,,,,,,,,,,,,,,,,,,,,,,,,,,,,,,,,,,,,,,,,,,,,,,,,,,,,,
22859ea366c248438a2393512571c5d3,1746300487.477655,5,Hand Close,99,169,124,87,35,36,38,65,0.42936762127536315,0.8399970999159959,0.3253451219090612,0.30543081271033534,-0.28463113886644353,-0.229905229703961,-0.2027686155620554,0.4467228942320444,0.93585205078125,0.10736083984375,0.24371337890625,0.23052978515625,0.0,0.0,0.0,0.9999709129333496,0.06379204988479614,0.21627581119537354,-0.13185851275920868,0.9937622547149658,-0.034796833992004395,0.12549662590026855,-0.3448746055364609,0.9956232905387878,,,,,,,,,,,,,,,,,,,,,,,,,,,,,,,,,,,,,,,,,,,,,,,,,,,,,,,,,,,,,,,
20f31236e796417dbe1a368873618bd6,1746300487.502663,5,Hand Close,109,159,128,90,41,36,41,79,0.5785219527711251,0.7113444828637501,0.3818832090331852,0.3576389429523623,-0.18423304691176245,-0.229905229703961,-0.12716214755121957,0.7715052172297981,0.93756103515625,0.09576416015625,0.245361328125,0.22705078125,0.0,0.0,0.0,0.9999709129333496,0.06379204988479614,0.21627581119537354,-0.13185851275920868,0.9937622547149658,-0.034796833992004395,0.12549662590026855,-0.3448746055364609,0.9956232905387878,,,,,,,,,,,,,,,,,,,,,,,,,,,,,,,,,,,,,,,,,,,,,,,,,,,,,,,,,,,,,,,
6f3dba5109fe4a58bfa7a5946ae6fdde,1746300487.522227,5,Hand Close,111,144,118,78,44,36,41,91,0.6083528190702774,0.5183655572853814,0.24053799122287522,0.14880642198425442,-0.13403400093442192,-0.229905229703961,-0.12716214755121957,1.049890065513587,0.93896484375,0.08563232421875,0.248291015625,0.22210693359375,0.0,0.0,0.0,0.999973714351654,0.06574946641921997,0.2202918529510498,-0.1412356048822403,0.9943653345108032,-0.036193251609802246,0.13050132989883423,-0.35601069033145905,0.996051549911499,,,,,,,,,,,,,,,,,,,,,,,,,,,,,,,,,,,,,,,,,,,,,,,,,,,,,,,,,,,,,,,
cd0eb4b24586447a83e0559aaaa37432,1746300487.537263,5,Hand Close,119,128,97,87,77,39,40,106,0.7276762842668869,0.3125213700017881,-0.05628696617877562,0.30543081271033534,0.4181555048163239,-0.18800760689944634,-0.15236430355483152,1.397871125868323,0.94000244140625,0.07904052734375,0.2513427734375,0.21649169921875,0.0,0.0,0.0,0.999973714351654,0.06574946641921997,0.2202918529510498,-0.1412356048822403,0.9943653345108032,-0.036193251609802246,0.13050132989883423,-0.35601069033145905,0.996051549911499,,,,,,,,,,,,,,,,,,,,,,,,,,,,,,,,,,,,,,,,,,,,,,,,,,,,,,,,,,,,,,,
a1be222092c94968b0df2c687869a1d9,1746300487.559862,5,Hand Close,114,115,96,81,81,43,40,103,0.6530991185190059,0.1452729678338685,-0.07042148795980661,0.2010145522262814,0.4850875661194446,-0.1321441098267602,-0.15236430355483152,1.3282749137973757,0.94085693359375,0.0743408203125,0.25494384765625,0.21026611328125,0.0,0.0,0.0,0.999973714351654,0.06574946641921997,0.2202918529510498,-0.1412356048822403,0.9943653345108032,-0.036193251609802246,0.13050132989883423,-0.35601069033145905,0.996051549911499,,,,,,,,,,,,,,,,,,,,,,,,,,,,,,,,,,,,,,,,,,,,,,,,,,,,,,,,,,,,,,,
ad141c4814924292804c298f4bba9f87,1746300487.582272,5,Hand Close,117,103,114,90,79,41,39,109,0.6978454179677345,-0.009110172628826473,0.18399990409875125,0.3576389429523623,0.45162153546788425,-0.16007585836310326,-0.17756645955844344,1.4674673379392702,0.941650390625,0.06903076171875,0.2587890625,0.20361328125,0.0,0.0,0.0,0.9999761581420898,0.06062006950378418,0.22446730732917786,-0.141731396317482,0.9948885440826416,-0.040596216917037964,0.14686736464500427,-0.33545853197574615,0.9964259266853333,,,,,,,,,,,,,,,,,,,,,,,,,,,,,,,,,,,,,,,,,,,,,,,,,,,,,,,,,,,,,,,
6a00472e7d09490ca238cdd69a880c59,1746300487.598289,5,Hand Close,111,94,126,96,80,40,35,106,0.6083528190702774,-0.12489752797584772,0.3536141654711232,0.46205520343641626,0.46835455079366445,-0.17404173263127481,-0.2783750835728912,1.397871125868323,0.9422607421875,0.06365966796875,0.262939453125,0.19696044921875,0.0,0.0,0.0,0.9999761581420898,0.06062006950378418,0.22446730732917786,-0.141731396317482,0.9948885440826416,-0.040596216917037964,0.14686736464500427,-0.33545853197574615,0.9964259266853333,,,,,,,,,,,,,,,,,,,,,,,,,,,,,,,,,,,,,,,,,,,,,,,,,,,,,,,,,,,,,,,
1ac2932d70664c55a61c764dda5a02f3,1746300487.619952,5,Hand Close,127,83,126,102,82,40,34,122,0.8469997494634963,-0.2664154067333181,0.3536141654711232,0.5664714639204702,0.5018205814452248,-0.17404173263127481,-0.3035772395765031,1.7690509235800413,0.94256591796875,0.05816650390625,0.26702880859375,0.1917724609375,0.0,0.0,0.0,0.9999784231185913,0.06161022186279297,0.22720319032669067,-0.10842534899711609,0.9953775405883789,-0.03753232955932617,0.15401118993759155,-0.29717591404914856,0.9967727661132812,,,,,,,,,,,,,,,,,,,,,,,,,,,,,,,,,,,,,,,,,,,,,,,,,,,,,,,,,,,,,,,
a6cd64a4a80b42b58127f8836887c0dd,1746300487.642499,5,Hand Close,115,84,125,91,58,38,33,106,0.6680145516685821,-0.25355014502809353,0.33947964369009215,0.375041653033038,0.10022821362650054,-0.2019734811676179,-0.3287793955801151,1.397871125868323,0.9427490234375,0.05108642578125,0.2705078125,0.18792724609375,0.0,0.0,0.0,0.9999784231185913,0.06161022186279297,0.22720319032669067,-0.10842534899711609,0.9953775405883789,-0.03753232955932617,0.15401118993759155,-0.29717591404914856,0.9967727661132812,,,,,,,,,,,,,,,,,,,,,,,,,,,,,,,,,,,,,,,,,,,,,,,,,,,,,,,,,,,,,,,
0b392c27138b49018851e426aaa9e116,1746300487.65822,5,Hand Close,107,146,128,94,56,35,31,107,0.5486910864719726,0.5440960806958306,0.3818832090331852,0.42724978327506496,0.06676218297494019,-0.24387110397213252,-0.37918370758733894,1.4210698632253054,0.94281005859375,0.04388427734375,0.27435302734375,0.1839599609375,0.0,0.0,0.0,0.9999784231185913,0.06161022186279297,0.22720319032669067,-0.10842534899711609,0.9953775405883789,-0.03753232955932617,0.15401118993759155,-0.29717591404914856,0.9967727661132812,,,,,,,,,,,,,,,,,,,,,,,,,,,,,,,,,,,,,,,,,,,,,,,,,,,,,,,,,,,,,,,
a5dad43160144eb59d9ccbcc57994e98,1746300487.679735,5,Hand Close,100,159,126,79,57,34,30,97,0.44428305442493937,0.7113444828637501,0.3536141654711232,0.1662091320649301,0.08349519830072037,-0.25783697824030405,-0.4043858635909509,1.1890824896554815,0.9425048828125,0.03955078125,0.27911376953125,0.17919921875,0.0,0.0,0.0,0.9999803900718689,0.060143887996673584,0.22700896859169006,-0.10523101687431335,0.9958102107048035,-0.0386071503162384,0.15438339114189148,-0.28739477694034576,0.9970813393592834,,,,,,,,,,,,,,,,,,,,,,,,,,,,,,,,,,,,,,,,,,,,,,,,,,,,,,,,,,,,,,,
2df4e4366d8949d8be49ca5e239d55a7,1746300487.70279,5,Hand Close,93,160,108,65,53,34,29,91,0.33987502237790607,0.7242097445689747,0.0991927734125653,-0.0774288090645291,0.016563136997599662,-0.25783697824030405,-0.42958801959456283,1.049890065513587,0.94171142578125,0.0382080078125,0.28460693359375,0.17486572265625,0.0,0.0,0.0,0.9999803900718689,0.060143887996673584,0.22700896859169006,-0.10523101687431335,0.9958102107048035,-0.0386071503162384,0.15438339114189148,-0.28739477694034576,0.9970813393592834,,,,,,,,,,,,,,,,,,,,,,,,,,,,,,,,,,,,,,,,,,,,,,,,,,,,,,,,,,,,,,,
234531d386bc4459b5cb751d7f5bbb54,1746300487.724903,5,Hand Close,88,162,107,61,50,31,29,89,0.26529785663002514,0.7499402679794238,0.0850582516315343,-0.14703964938723174,-0.033635908979740864,-0.2997346010448187,-0.42958801959456283,1.0034925907996222,0.94049072265625,0.0372314453125,0.290283203125,0.17236328125,0.0,0.0,0.0,0.9999822378158569,0.05854541063308716,0.23198485374450684,-0.10847648978233337,0.9961827397346497,-0.03729373216629028,0.15466922521591187,-0.2983962297439575,0.9973530769348145,,,,,,,,,,,,,,,,,,,,,,,,,,,,,,,,,,,,,,,,,,,,,,,,,,,,,,,,,,,,,,,
7b54bbb0db1e4b18867faa9270e2eea3,1746300487.739953,5,Hand Close,93,161,103,63,46,32,32,95,0.33987502237790607,0.7370750062741993,0.028520164507410333,-0.11223422922588042,-0.10056797028286157,-0.28576872677664716,-0.353981551583727,1.1426850149415166,0.939208984375,0.03497314453125,0.29559326171875,0.1708984375,0.0,0.0,0.0,0.9999822378158569,0.05854541063308716,0.23198485374450684,-0.10847648978233337,0.9961827397346497,-0.03729373216629028,0.15466922521591187,-0.2983962297439575,0.9973530769348145,,,,,,,,,,,,,,,,,,,,,,,,,,,,,,,,,,,,,,,,,,,,,,,,,,,,,,,,,,,,,,,
d161124b64b2457cb3f697f91bcdbe31,1746300487.762637,5,Hand Close,93,97,86,51,44,31,29,92,0.33987502237790607,-0.08630174286017396,-0.21176670577011655,-0.3210667501939883,-0.13403400093442192,-0.2997346010448187,-0.42958801959456283,1.0730888028705694,0.9381103515625,0.03125,0.3004150390625,0.16925048828125,0.0,0.0,0.0,0.9999838471412659,0.05826181173324585,0.23351281881332397,-0.09804286062717438,0.996515154838562,-0.03553202748298645,0.15001177787780762,-0.2819720506668091,0.9975966215133667,,,,,,,,,,,,,,,,,,,,,,,,,,,,,,,,,,,,,,,,,,,,,,,,,,,,,,,,,,,,,,,
c5a85ce6bb0140468704339ceffd3a10,1746300487.78486,5,Hand Close,111,69,61,54,51,33,33,128,0.6083528190702774,-0.44652907060646224,-0.5651297502958914,-0.2688586199519613,-0.01690289365396069,-0.2718028525084756,-0.3287793955801151,1.9082433477219358,0.93707275390625,0.0283203125,0.30499267578125,0.16717529296875,0.0,0.0,0.0,0.9999838471412659,0.05826181173324585,0.23351281881332397,-0.09804286062717438,0.996515154838562,-0.03553202748298645,0.15001177787780762,-0.2819720506668091,0.9975966215133667,,,,,,,,,,,,,,,,,,,,,,,,,,,,,,,,,,,,,,,,,,,,,,,,,,,,,,,,,,,,,,,
07641e74b9654f7aa03f45e9a94d0144,1746300487.799669,5,Hand Close,108,65,59,60,60,34,33,129,0.5636065196215488,-0.4979901174273606,-0.5933987938579534,-0.1644423594679074,0.1336942442780609,-0.25783697824030405,-0.3287793955801151,1.9314420850789182,0.9361572265625,0.02630615234375,0.30950927734375,0.16448974609375,0.0,0.0,0.0,0.9999852776527405,0.059750258922576904,0.23199403285980225,-0.11361871659755707,0.9968045353889465,-0.032829076051712036,0.1476958990097046,-0.3292369097471237,0.9978026151657104,,,,,,,,,,,,,,,,,,,,,,,,,,,,,,,,,,,,,,,,,,,,,,,,,,,,,,,,,,,,,,,
5fc52c7866304ffd8de3331da06a8ee5,1746300487.822365,5,Hand Close,96,65,66,65,63,36,34,137,0.3846213218266346,-0.4979901174273606,-0.4944571413907364,-0.0774288090645291,0.18389329025540144,-0.229905229703961,-0.3035772395765031,2.1170319839347775,0.935546875,0.0228271484375,0.3133544921875,0.16107177734375,0.0,0.0,0.0,0.9999852776527405,0.059750258922576904,0.23199403285980225,-0.11361871659755707,0.9968045353889465,-0.032829076051712036,0.1476958990097046,-0.3292369097471237,0.9978026151657104,,,,,,,,,,,,,,,,,,,,,,,,,,,,,,,,,,,,,,,,,,,,,,,,,,,,,,,,,,,,,,,
ff230d4b9d3c4f39acaacf3fe701f53e,1746300487.84543,5,Hand Close,98,59,62,63,65,35,34,131,0.414452188125787,-0.575181687658708,-0.5509952285148604,-0.11223422922588042,0.21735932090696178,-0.24387110397213252,-0.3035772395765031,1.977839559792883,0.93505859375,0.0184326171875,0.317138671875,0.156982421875,0.0,0.0,0.0,0.9999863505363464,0.06228053569793701,0.22612571716308594,-0.11587353050708771,0.9970430731773376,-0.02988097071647644,0.13574659824371338,-0.3208547383546829,0.9979506731033325,,,,,,,,,,,,,,,,,,,,,,,,,,,,,,,,,,,,,,,,,,,,,,,,,,,,,,,,,,,,,,,
d9b2dd4c2ae34929bf55bb0c8ae9b7b0,1746300487.859635,5,Hand Close,100,60,61,64,65,33,36,133,0.44428305442493937,-0.5623164259534835,-0.5651297502958914,-0.09483151914520475,0.21735932090696178,-0.2718028525084756,-0.2531729275692793,2.024237034506848,0.9344482421875,0.01416015625,0.321533203125,0.152099609375,0.0,0.0,0.0,0.9999863505363464,0.06228053569793701,0.22612571716308594,-0.11587353050708771,0.9970430731773376,-0.02988097071647644,0.13574659824371338,-0.3208547383546829,0.9979506731033325,,,,,,,,,,,,,,,,,,,,,,,,,,,,,,,,,,,,,,,,,,,,,,,,,,,,,,,,,,,,,,,
ea6e821dd3944c36b6fc00b99ff0e64f,1746300487.882958,5,Hand Close,91,58,61,65,62,31,58,122,0.3100441560787537,-0.5880469493639326,-0.5651297502958914,-0.0774288090645291,0.16716027492962124,-0.2997346010448187,0.3012745045101834,1.7690509235800413,0.93341064453125,0.01080322265625,0.326904296875,0.1473388671875,0.0,0.0,0.0,0.9999863505363464,0.06228053569793701,0.22612571716308594,-0.11587353050708771,0.9970430731773376,-0.02988097071647644,0.13574659824371338,-0.3208547383546829,0.9979506731033325,,,,,,,,,,,,,,,,,,,,,,,,,,,,,,,,,,,,,,,,,,,,,,,,,,,,,,,,,,,,,,,
fa983d49455742c6952510862c24865c,1746300487.905602,5,Hand Close,94,58,60,59,56,34,81,125,0.3547904555274823,-0.5880469493639326,-0.5792642720769223,-0.18184506954858304,0.06676218297494019,-0.25783697824030405,0.880924092593258,1.8386471356509886,0.931884765625,0.00787353515625,0.3331298828125,0.14312744140625,0.0,0.0,0.0,0.9999874234199524,0.060298025608062744,0.2311602234840393,-0.13074709475040436,0.9972745180130005,-0.02756023406982422,0.13543212413787842,-0.3416541665792465,0.9981064200401306,,,,,,,,,,,,,,,,,,,,,,,,,,,,,,,,,,,,,,,,,,,,,,,,,,,,,,,,,,,,,,,
84a02ed5be5246faae3eb5eed91a2a3f,1746300487.919859,5,Hand Close,83,53,51,52,49,32,82,92,0.19072069088214424,-0.6523732578900555,-0.7064749681062013,-0.30366404011331266,-0.05036892430552104,-0.28576872677664716,0.90612624859687,1.0730888028705694,0.929931640625,0.004150390625,0.34027099609375,0.13897705078125,0.0,0.0,0.0,0.9999874234199524,0.060298025608062744,0.2311602234840393,-0.13074709475040436,0.9972745180130005,-0.02756023406982422,0.13543212413787842,-0.3416541665792465,0.9981064200401306,,,,,,,,,,,,,,,,,,,,,,,,,,,,,,,,,,,,,,,,,,,,,,,,,,,,,,,,,,,,,,,
385d598803ab402ca1f8f1a0585fc461,1746300487.941839,5,Hand Close,74,54,59,56,52,32,82,95,0.05648179253595857,-0.639507996184831,-0.5933987938579534,-0.23405319979061,-0.00016987832818051362,-0.28576872677664716,0.90612624859687,1.1426850149415166,0.92767333984375,-0.00030517578125,0.3480224609375,0.1348876953125,0.0,0.0,0.0,0.9999883770942688,0.04794633388519287,0.23232045769691467,-0.14018754661083221,0.99747234582901,-0.02717357873916626,0.12700703740119934,-0.38808052241802216,0.9982449412345886,,,,,,,,,,,,,,,,,,,,,,,,,,,,,,,,,,,,,,,,,,,,,,,,,,,,,,,,,,,,,,,
918dc179912b4094b789ae258645e13a,1746300487.964866,5,Hand Close,74,57,57,57,50,33,82,99,0.05648179253595857,-0.6009122110691573,-0.6216678374200153,-0.21665048970993436,-0.033635908979740864,-0.2718028525084756,0.90612624859687,1.2354799643694463,0.9254150390625,-0.0047607421875,0.35546875,0.1307373046875,0.0,0.0,0.0,0.9999883770942688,0.04794633388519287,0.23232045769691467,-0.14018754661083221,0.99747234582901,-0.02717357873916626,0.12700703740119934,-0.38808052241802216,0.9982449412345886,,,,,,,,,,,,,,,,,,,,,,,,,,,,,,,,,,,,,,,,,,,,,,,,,,,,,,,,,,,,,,,
44b2bb5bd133426bad5d7f7eebe3f9df,1746300487.980387,5,Hand Close,60,60,56,56,49,34,68,76,-0.152334271558108,-0.5623164259534835,-0.6358023592010463,-0.23405319979061,-0.05036892430552104,-0.25783697824030405,0.5532960645463028,0.7019090051588509,0.92327880859375,-0.00897216796875,0.3626708984375,0.12579345703125,0.0,0.0,0.0,0.9999883770942688,0.04794633388519287,0.23232045769691467,-0.14018754661083221,0.99747234582901,-0.02717357873916626,0.12700703740119934,-0.38808052241802216,0.9982449412345886,,,,,,,,,,,,,,,,,,,,,,,,,,,,,,,,,,,,,,,,,,,,,,,,,,,,,,,,,,,,,,,
81c60aac1bef461298cf8b7788929e26,1746300488.002609,5,Hand Close,62,62,82,60,47,32,42,73,-0.12250340525895564,-0.5365859025430343,-0.26830479289424053,-0.1644423594679074,-0.08383495495708139,-0.28576872677664716,-0.10195999154760763,0.6323127930879037,0.9210205078125,-0.01226806640625,0.3699951171875,0.120849609375,0.0,0.0,0.0,0.9999892711639404,0.043560683727264404,0.2345617115497589,-0.14280499517917633,0.9976576566696167,-0.02631998062133789,0.12471255660057068,-0.39282701909542084,0.998379647731781,,,,,,,,,,,,,,,,,,,,,,,,,,,,,,,,,,,,,,,,,,,,,,,,,,,,,,,,,,,,,,,
c80985e69ace489c8a2ef35b3fa8578a,1746300488.025191,5,Hand Close,66,59,91,65,46,32,40,77,-0.0628416726606509,-0.575181687658708,-0.14109409686496158,-0.0774288090645291,-0.10056797028286157,-0.28576872677664716,-0.15236430355483152,0.7251077425158333,0.91827392578125,-0.01446533203125,0.378173828125,0.115966796875,0.0,0.0,0.0,0.9999892711639404,0.043560683727264404,0.2345617115497589,-0.14280499517917633,0.9976576566696167,-0.02631998062133789,0.12471255660057068,-0.39282701909542084,0.998379647731781,,,,,,,,,,,,,,,,,,,,,,,,,,,,,,,,,,,,,,,,,,,,,,,,,,,,,,,,,,,,,,,
d1c3540a65b04985819c73f1a85aa0b3,1746300488.039764,5,Hand Close,73,68,92,61,46,29,39,82,0.04156635938638239,-0.45939433231168686,-0.12695957508393058,-0.14703964938723174,-0.10056797028286157,-0.32766634958116175,-0.17756645955844344,0.8411014293007453,0.9156494140625,-0.01568603515625,0.3858642578125,0.11126708984375,0.0,0.0,0.0,0.9999902248382568,0.04365205764770508,0.23431548476219177,-0.1424316167831421,0.9978618025779724,-0.022894620895385742,0.11309537291526794,-0.39294594526290894,0.9985330104827881,,,,,,,,,,,,,,,,,,,,,,,,,,,,,,,,,,,,,,,,,,,,,,,,,,,,,,,,,,,,,,,
013845b7251c4b5c8876b535f2a0a850,1746300488.062302,5,Hand Close,89,169,98,63,52,47,93,118,0.28021328977960136,0.8399970999159959,-0.04215244439774463,-0.11223422922588042,-0.00016987832818051362,-0.07628061275407402,1.1833499646366012,1.6762559741521117,0.91314697265625,-0.01708984375,0.39300537109375,0.1064453125,0.0,0.0,0.0,0.9999902248382568,0.04365205764770508,0.23431548476219177,-0.1424316167831421,0.9978618025779724,-0.022894620895385742,0.11309537291526794,-0.39294594526290894,0.9985330104827881,,,,,,,,,,,,,,,,,,,,,,,,,,,,,,,,,,,,,,,,,,,,,,,,,,,,,,,,,,,,,,,
20fd6153a37c45a1a53bb61c3669898d,1746300488.08531,5,Hand Close,113,188,114,75,63,61,137,152,0.6381836853694297,1.084437072315263,0.18399990409875125,0.09659829174222746,0.18389329025540144,0.11924162700032757,2.2922448287955266,2.4650130442895133,0.91070556640625,-0.01861572265625,0.3997802734375,0.10198974609375,0.0,0.0,0.0,0.9999910593032837,0.043813347816467285,0.23140287399291992,-0.1405513808131218,0.9980370402336121,-0.02073800563812256,0.10480308532714844,-0.3823249563574791,0.9986676573753357,,,,,,,,,,,,,,,,,,,,,,,,,,,,,,,,,,,,,,,,,,,,,,,,,,,,,,,,,,,,,,,
122506e7feae4e208b759d3df981a5af,1746300488.099924,5,Hand Close,137,206,113,84,68,70,161,171,0.9961540809592582,1.3160117830093054,0.16986538231772025,0.25322268246830837,0.2675583668843023,0.24493449541387144,2.897096572882213,2.905789054072179,0.90802001953125,-0.0205078125,0.4066162109375,0.09796142578125,0.0,0.0,0.0,0.9999910593032837,0.043813347816467285,0.23140287399291992,-0.1405513808131218,0.9980370402336121,-0.02073800563812256,0.10480308532714844,-0.3823249563574791,0.9986676573753357,,,,,,,,,,,,,,,,,,,,,,,,,,,,,,,,,,,,,,,,,,,,,,,,,,,,,,,,,,,,,,,
6ba63432e573471581a9ad2f43d9594a,1746300488.122469,5,Hand Close,137,210,120,92,70,74,207,181,0.9961540809592582,1.3674728298302037,0.2688070347849372,0.3924443631137136,0.3010243975358627,0.30079799248655764,4.056395749048362,3.1377764276420033,0.90484619140625,-0.0206298828125,0.41455078125,0.09417724609375,0.0,0.0,0.0,0.999991774559021,0.04337674379348755,0.23194462060928345,-0.14607234299182892,0.998190701007843,-0.019172072410583496,0.10096955299377441,-0.3955599218606949,0.9987886548042297,,,,,,,,,,,,,,,,,,,,,,,,,,,,,,,,,,,,,,,,,,,,,,,,,,,,,,,,,,,,,,,
3728fbaf72ca489cb09332e6cae91c2d,1746300488.144576,5,Hand Close,142,210,146,110,73,96,396,201,1.070731246707139,1.3674728298302037,0.636304601091743,0.7056931445658755,0.35122344351320317,0.6080472263863316,8.81960323373102,3.601751174781651,0.90142822265625,-0.02008056640625,0.422607421875,0.09149169921875,0.0,0.0,0.0,0.999991774559021,0.04337674379348755,0.23194462060928345,-0.14607234299182892,0.998190701007843,-0.019172072410583496,0.10096955299377441,-0.3955599218606949,0.9987886548042297,,,,,,,,,,,,,,,,,,,,,,,,,,,,,,,,,,,,,,,,,,,,,,,,,,,,,,,,,,,,,,,
ed991f0e6bd24983af097ebc5db189ae,1746300488.160612,5,Hand Close,156,140,160,116,74,109,542,269,1.2795473108012057,0.46690451046448306,0.8341879060261769,0.8101094050499293,0.36795645883898337,0.7896035918725616,12.499118010258362,5.179265315056455,0.89813232421875,-0.01995849609375,0.42962646484375,0.09063720703125,0.0,0.0,0.0,0.999991774559021,0.04337674379348755,0.23194462060928345,-0.14607234299182892,0.998190701007843,-0.019172072410583496,0.10096955299377441,-0.3955599218606949,0.9987886548042297,,,,,,,,,,,,,,,,,,,,,,,,,,,,,,,,,,,,,,,,,,,,,,,,,,,,,,,,,,,,,,,
f5440c92db9a4bb4990475895c4d2dd8,1746300488.213202,5,Hand Close,153,120,177,124,69,132,654,272,1.2348010113524772,0.20959927635999143,1.0744747763037037,0.9493310856953346,0.2842913822100825,1.110818700040507,15.321759482662898,5.248861527127402,0.89532470703125,-0.02362060546875,0.4354248046875,0.0902099609375,0.0,0.0,0.0,0.9999929070472717,0.039709270000457764,0.22807210683822632,-0.15400367975234985,0.9984232783317566,-0.016915857791900635,0.08780163526535034,-0.4155963957309723,0.9989846348762512,,,,,,,,,,,,,,,,,,,,,,,,,,,,,,,,,,,,,,,,,,,,,,,,,,,,,,,,,,,,,,,
1bd98c27be16474bae8d2f197cd77a71,1746300488.213202,5,Hand Close,141,85,168,126,78,137,700,268,1.0558158135575628,-0.24068488332286894,0.9472640802744249,0.984136505856686,0.43488852014210405,1.1806480713813647,16.481058658829046,5.156066577699472,0.89300537109375,-0.03082275390625,0.4398193359375,0.089599609375,0.0,0.0,0.0,0.9999929070472717,0.039709270000457764,0.22807210683822632,-0.15400367975234985,0.9984232783317566,-0.016915857791900635,0.08780163526535034,-0.4155963957309723,0.9989846348762512,,,,,,,,,,,,,,,,,,,,,,,,,,,,,,,,,,,,,,,,,,,,,,,,,,,,,,,,,,,,,,,
16de3618f08d4dac9ea16d83a2196447,1746300488.219943,5,Hand Close,142,83,159,117,77,138,702,263,1.070731246707139,-0.2664154067333181,0.820053384245146,0.8275121151306051,0.4181555048163239,1.1946139456495362,16.53146297083627,5.04007289091456,0.8912353515625,-0.03668212890625,0.44317626953125,0.0889892578125,0.0,0.0,0.0,0.9999929070472717,0.039709270000457764,0.22807210683822632,-0.15400367975234985,0.9984232783317566,-0.016915857791900635,0.08780163526535034,-0.4155963957309723,0.9989846348762512,,,,,,,,,,,,,,,,,,,,,,,,,,,,,,,,,,,,,,,,,,,,,,,,,,,,,,,,,,,,,,,
d110e6ef3b72488e8cff1b432bf3196b,1746300488.242857,5,Hand Close,136,77,135,99,71,125,625,246,0.981238647809682,-0.3436069769646656,0.4808248615004021,0.5142633336784432,0.31775741286164283,1.0130575801633062,14.590896958558151,4.645694355845859,0.88970947265625,-0.039306640625,0.44622802734375,0.087646484375,0.0,0.0,0.0,0.9999929070472717,0.039709270000457764,0.22807210683822632,-0.15400367975234985,0.9984232783317566,-0.016915857791900635,0.08780163526535034,-0.4155963957309723,0.9989846348762512,,,,,,,,,,,,,,,,,,,,,,,,,,,,,,,,,,,,,,,,,,,,,,,,,,,,,,,,,,,,,,,
6f09f69182424bc19329166f3e302369,1746300488.270383,5,Hand Close,119,80,113,89,70,108,503,146,0.7276762842668869,-0.30501119184899184,0.16986538231772025,0.34023623287168664,0.3010243975358627,0.77563771760439,11.516233926117497,2.325820620147619,0.8880615234375,-0.04010009765625,0.44970703125,0.0863037109375,0.0,0.0,0.0,0.9999933838844299,0.03811204433441162,0.2272253930568695,-0.13910409063100815,0.9984784126281738,-0.015370011329650879,0.08192238211631775,-0.4091166481375694,0.9990506768226624,,,,,,,,,,,,,,,,,,,,,,,,,,,,,,,,,,,,,,,,,,,,,,,,,,,,,,,,,,,,,,,
7af8e6247b3242c293b56f024c5e7070,1746300488.279996,5,Hand Close,102,69,61,65,69,71,333,99,0.47411392072409175,-0.44652907060646224,-0.5651297502958914,-0.0774288090645291,0.2842913822100825,0.258900369682043,7.231867405503467,1.2354799643694463,0.88671875,-0.03961181640625,0.45257568359375,0.08502197265625,0.0,0.0,0.0,0.9999933838844299,0.03811204433441162,0.2272253930568695,-0.13910409063100815,0.9984784126281738,-0.015370011329650879,0.08192238211631775,-0.4091166481375694,0.9990506768226624,,,,,,,,,,,,,,,,,,,,,,,,,,,,,,,,,,,,,,,,,,,,,,,,,,,,,,,,,,,,,,,
d261943a6810441cb97133c3b0ef95f5,1746300488.303018,5,Hand Close,82,73,57,41,62,50,220,77,0.17580525773256805,-0.39506802378556394,-0.6216678374200153,-0.4950938510007449,0.16716027492962124,-0.03438298994955939,4.384023777095318,0.7251077425158333,0.88568115234375,-0.03912353515625,0.45465087890625,0.0849609375,0.0,0.0,0.0,0.9999933838844299,0.03811204433441162,0.2272253930568695,-0.13910409063100815,0.9984784126281738,-0.015370011329650879,0.08192238211631775,-0.4091166481375694,0.9990506768226624,,,,,,,,,,,,,,,,,,,,,,,,,,,,,,,,,,,,,,,,,,,,,,,,,,,,,,,,,,,,,,,
5a654aba58bc4a6e858eeb46f772f84d,1746300488.324616,5,Hand Close,78,67,53,38,74,64,237,67,0.1161435251342633,-0.4722595940169114,-0.6782059245441393,-0.5473019812427719,0.36795645883898337,0.1611392498048422,4.812460429156721,0.49312036894600925,0.88482666015625,-0.03887939453125,0.45623779296875,0.0858154296875,0.0,0.0,0.0,0.9999927878379822,0.034856557846069336,0.226500004529953,-0.12438798695802689,0.9982737302780151,-0.010984718799591064,0.05655628442764282,-0.34211481362581253,0.998918890953064,,,,,,,,,,,,,,,,,,,,,,,,,,,,,,,,,,,,,,,,,,,,,,,,,,,,,,,,,,,,,,,
e49e061141c448119c88f66a779a241c,1746300488.340197,5,Hand Close,86,107,63,36,76,64,224,66,0.2354669903308728,0.042350874192071855,-0.5368607067338294,-0.5821074014041232,0.4014224894905437,0.1611392498048422,4.484832401109766,0.46992163158902683,0.88427734375,-0.03912353515625,0.4571533203125,0.0865478515625,0.0,0.0,0.0,0.9999927878379822,0.034856557846069336,0.226500004529953,-0.12438798695802689,0.9982737302780151,-0.010984718799591064,0.05655628442764282,-0.34211481362581253,0.998918890953064,,,,,,,,,,,,,,,,,,,,,,,,,,,,,,,,,,,,,,,,,,,,,,,,,,,,,,,,,,,,,,,
a3b9b440017e4a198f48c6df9f3b4593,1746300488.362712,5,Hand Close,69,105,58,33,75,64,220,57,-0.01809537321192235,0.01662035078162269,-0.6075333156389844,-0.6343155316461501,0.38468947416476357,0.1611392498048422,4.384023777095318,0.26113299537618523,0.8841552734375,-0.03955078125,0.4571533203125,0.0872802734375,0.0,0.0,0.0,0.9999924302101135,0.0358889102935791,0.22216781973838806,-0.1290035992860794,0.998081386089325,-0.006957352161407471,0.050689876079559326,-0.35264943540096283,0.9987900853157043,,,,,,,,,,,,,,,,,,,,,,,,,,,,,,,,,,,,,,,,,,,,,,,,,,,,,,,,,,,,,,,
c42c4222f8024cce86bbd9778abf837f,1746300488.384748,5,Hand Close,67,123,59,31,72,62,214,50,-0.04792623951107472,0.24819506147566517,-0.5933987938579534,-0.6691209518075014,0.33449042818742303,0.13320750126849912,4.232810841073646,0.09874183387730838,0.88409423828125,-0.0401611328125,0.45721435546875,0.0870361328125,0.0,0.0,0.0,0.9999924302101135,0.0358889102935791,0.22216781973838806,-0.1290035992860794,0.998081386089325,-0.006957352161407471,0.050689876079559326,-0.35264943540096283,0.9987900853157043,,,,,,,,,,,,,,,,,,,,,,,,,,,,,,,,,,,,,,,,,,,,,,,,,,,,,,,,,,,,,,,
ab5fb46e76d745a8a878d779276797e7,1746300488.400275,5,Hand Close,69,124,59,66,66,60,202,47,-0.01809537321192235,0.26106032318088973,-0.5933987938579534,-0.06002609898385344,0.23409233623274195,0.10527575273215603,3.9303849690303028,0.029145621806361165,0.8841552734375,-0.03973388671875,0.4573974609375,0.08612060546875,0.0,0.0,0.0,0.9999925494194031,0.03566396236419678,0.22111493349075317,-0.13821321725845337,0.9980634450912476,-0.00354689359664917,0.0452960729598999,-0.3708823174238205,0.9988256692886353,,,,,,,,,,,,,,,,,,,,,,,,,,,,,,,,,,,,,,,,,,,,,,,,,,,,,,,,,,,,,,,
e657f40619664034af1c7e261ab55510,1746300488.423065,5,Hand Close,74,156,67,71,67,44,115,49,0.05648179253595857,0.6727486977480763,-0.4803226196097054,0.026987451419524838,0.25082535155852215,-0.11817823555858864,1.737797396716064,0.07554309652032598,0.8843994140625,-0.038818359375,0.45721435546875,0.0849609375,0.0,0.0,0.0,0.9999925494194031,0.03566396236419678,0.22111493349075317,-0.13821321725845337,0.9980634450912476,-0.00354689359664917,0.0452960729598999,-0.3708823174238205,0.9988256692886353,,,,,,,,,,,,,,,,,,,,,,,,,,,,,,,,,,,,,,,,,,,,,,,,,,,,,,,,,,,,,,,
b1dec946d7cd41089b4b36b228bc433c,1746300488.444809,5,Hand Close,60,181,54,73,74,43,88,56,-0.152334271558108,0.9943802403786909,-0.6640714027631083,0.06179287158087615,0.36795645883898337,-0.1321441098267602,1.0573391846185416,0.23793425801920282,0.88482666015625,-0.0389404296875,0.45648193359375,0.0845947265625,0.0,0.0,0.0,0.9999923706054688,0.036434948444366455,0.2196730375289917,-0.14726221561431885,0.9980275630950928,-0.0030907392501831055,0.03832888603210449,-0.38132134079933167,0.9988113641738892,,,,,,,,,,,,,,,,,,,,,,,,,,,,,,,,,,,,,,,,,,,,,,,,,,,,,,,,,,,,,,,
140a585204b04662b6fb0f67aaad7966,1746300488.460448,5,Hand Close,88,231,54,75,71,41,67,63,0.26529785663002514,1.63764332563992,-0.6640714027631083,0.09659829174222746,0.31775741286164283,-0.16007585836310326,0.5280939085426909,0.40032541951807965,0.88507080078125,-0.0401611328125,0.4556884765625,0.08544921875,0.0,0.0,0.0,0.9999923706054688,0.036434948444366455,0.2196730375289917,-0.14726221561431885,0.9980275630950928,-0.0030907392501831055,0.03832888603210449,-0.38132134079933167,0.9988113641738892,,,,,,,,,,,,,,,,,,,,,,,,,,,,,,,,,,,,,,,,,,,,,,,,,,,,,,,,,,,,,,,
9b2d1eb175c449feb225289b44a04567,1746300488.485058,5,Hand Close,164,395,83,78,73,50,71,90,1.3988707759978152,3.7475462452967516,-0.2541702711132095,0.14880642198425442,0.35122344351320317,-0.03438298994955939,0.6289025325571386,1.0266913281566046,0.88531494140625,-0.0416259765625,0.454833984375,0.08685302734375,0.0,0.0,0.0,0.9999923706054688,0.036434948444366455,0.2196730375289917,-0.14726221561431885,0.9980275630950928,-0.0030907392501831055,0.03832888603210449,-0.38132134079933167,0.9988113641738892,,,,,,,,,,,,,,,,,,,,,,,,,,,,,,,,,,,,,,,,,,,,,,,,,,,,,,,,,,,,,,,
a297a26855e043c3b13db8b906167519,1746300488.505525,5,Hand Close,179,424,88,56,76,92,202,126,1.622602273241458,4.120638834748265,-0.18349766220805455,-0.23405319979061,0.4014224894905437,0.5521837293136453,3.9303849690303028,1.861845873007971,0.88543701171875,-0.04266357421875,0.454345703125,0.08758544921875,0.0,0.0,0.0,0.999992311000824,0.036585986614227295,0.22039899230003357,-0.14012573659420013,0.9979711771011353,-0.0010107159614562988,0.03920111060142517,-0.3762049674987793,0.9987842440605164,,,,,,,,,,,,,,,,,,,,,,,,,,,,,,,,,,,,,,,,,,,,,,,,,,,,,,,,,,,,,,,
71afb1913fd3401382bd02829a683c31,1746300488.519894,5,Hand Close,188,417,95,65,67,115,228,145,1.7568411715876435,4.030582002811692,-0.08455600974083761,-0.0774288090645291,0.25082535155852215,0.8733988374815909,4.585641025124213,2.302621882790637,0.88482666015625,-0.04254150390625,0.455322265625,0.088623046875,0.0,0.0,0.0,0.999992311000824,0.036585986614227295,0.22039899230003357,-0.14012573659420013,0.9979711771011353,-0.0010107159614562988,0.03920111060142517,-0.3762049674987793,0.9987842440605164,,,,,,,,,,,,,,,,,,,,,,,,,,,,,,,,,,,,,,,,,,,,,,,,,,,,,,,,,,,,,,,
92305d1e7d3b41229869840f5f709a79,1746300488.542876,5,Hand Close,190,402,110,79,65,117,268,161,1.786672037886796,3.8376030772333234,0.12746181697462727,0.1662091320649301,0.21735932090696178,0.9013305860179338,5.593727265268691,2.673801680502355,0.884033203125,-0.0416259765625,0.4569091796875,0.0887451171875,0.0,0.0,0.0,0.9999926090240479,0.035696566104888916,0.22332563996315002,-0.1376860961318016,0.9980250597000122,-0.0006853938102722168,0.038902610540390015,-0.3700255826115608,0.9988369941711426,,,,,,,,,,,,,,,,,,,,,,,,,,,,,,,,,,,,,,,,,,,,,,,,,,,,,,,,,,,,,,,
1839814ff37e47ba8a4f5589abcbab2a,1746300488.564969,5,Hand Close,184,380,117,85,66,122,288,169,1.6971794389893389,3.554567319718383,0.22640346944184422,0.27062539254898405,0.23409233623274195,0.9711599573587916,6.0977703853409295,2.8593915793582143,0.88330078125,-0.0421142578125,0.4581298828125,0.08929443359375,0.0,0.0,0.0,0.9999926090240479,0.035696566104888916,0.22332563996315002,-0.1376860961318016,0.9980250597000122,-0.0006853938102722168,0.038902610540390015,-0.3700255826115608,0.9988369941711426,,,,,,,,,,,,,,,,,,,,,,,,,,,,,,,,,,,,,,,,,,,,,,,,,,,,,,,,,,,,,,,
83c7dedd2ef34106814448a0ff7d4b39,1746300488.580485,5,Hand Close,129,196,98,89,66,120,290,158,0.8768306157626488,1.1873591659570597,-0.04215244439774463,0.34023623287168664,0.23409233623274195,0.9432282088224484,6.1481746973481535,2.6042054684314078,0.8829345703125,-0.0428466796875,0.45843505859375,0.0916748046875,0.0,0.0,0.0,0.9999926090240479,0.035696566104888916,0.22332563996315002,-0.1376860961318016,0.9980250597000122,-0.0006853938102722168,0.038902610540390015,-0.3700255826115608,0.9988369941711426,,,,,,,,,,,,,,,,,,,,,,,,,,,,,,,,,,,,,,,,,,,,,,,,,,,,,,,,,,,,,,,
62b78ced779c4785b725fd5866bc2f32,1746300488.602775,5,Hand Close,115,127,93,89,68,101,273,136,0.6680145516685821,0.2996561082965635,-0.11282505330289959,0.34023623287168664,0.2675583668843023,0.6778765977271892,5.719738045286751,2.093833246577795,0.8828125,-0.04498291015625,0.458251953125,0.0921630859375,0.0,0.0,0.0,0.9999926090240479,0.03579306602478027,0.22494778037071228,-0.14507800340652466,0.998096764087677,-0.00045806169509887695,0.021380245685577393,-0.3623819351196289,0.9988588690757751,,,,,,,,,,,,,,,,,,,,,,,,,,,,,,,,,,,,,,,,,,,,,,,,,,,,,,,,,,,,,,,
a5ec9c94d11b4ddb85c0ff3ee159bc75,1746300488.625385,5,Hand Close,94,137,86,85,80,79,255,210,0.3547904555274823,0.4283087253488093,-0.21176670577011655,0.27062539254898405,0.46835455079366445,0.37062736382741535,5.266099237221735,3.810539810994493,0.88311767578125,-0.04486083984375,0.45806884765625,0.0904541015625,0.0,0.0,0.0,0.9999926090240479,0.03579306602478027,0.22494778037071228,-0.14507800340652466,0.998096764087677,-0.00045806169509887695,0.021380245685577393,-0.3623819351196289,0.9988588690757751,,,,,,,,,,,,,,,,,,,,,,,,,,,,,,,,,,,,,,,,,,,,,,,,,,,,,,,,,,,,,,,
1a649895f03c49f0a5fd30d1fcbb170c,1746300488.646935,5,Hand Close,96,177,76,73,93,80,359,210,0.3846213218266346,0.9429191935577926,-0.3531119235804265,0.06179287158087615,0.6858837500288067,0.3845932380955869,7.887123461597377,3.810539810994493,0.88433837890625,-0.0421142578125,0.45648193359375,0.08782958984375,0.0,0.0,0.0,0.9999929666519165,0.036158621311187744,0.21985071897506714,-0.12440848350524902,0.9980754256248474,0.0005815029144287109,0.020346254110336304,-0.3374301642179489,0.9989128708839417,,,,,,,,,,,,,,,,,,,,,,,,,,,,,,,,,,,,,,,,,,,,,,,,,,,,,,,,,,,,,,,
378261d77e3e40f8a7ac042a2893c01e,1746300488.662279,5,Hand Close,95,242,81,67,146,99,364,210,0.36970588867705845,1.7791612043973903,-0.2824393146752715,-0.04262338890317779,1.572733562295156,0.6499448491908462,8.013134241615436,3.810539810994493,0.88531494140625,-0.03857421875,0.455322265625,0.08551025390625,0.0,0.0,0.0,0.9999929666519165,0.036158621311187744,0.21985071897506714,-0.12440848350524902,0.9980754256248474,0.0005815029144287109,0.020346254110336304,-0.3374301642179489,0.9989128708839417,,,,,,,,,,,,,,,,,,,,,,,,,,,,,,,,,,,,,,,,,,,,,,,,,,,,,,,,,,,,,,,
